Time,measurement1.Three-phase Meter1.POWER_Q,measurement1.Three-phase Meter1.VLn_RMS,measurement2.Three-phase Meter2.POWER_Q,measurement2.Three-phase Meter2.VLn_RMS,measurement3.Three-phase Meter3.POWER_Q,measurement3.Three-phase Meter3.VLn_RMS,measurement4.Three-phase Meter4.POWER_P,measurement4.Three-phase Meter4.POWER_Q,measurement5.Three-phase Meter5.POWER_P,measurement5.Three-phase Meter5.POWER_Q,measurement6.Three-phase Meter6.POWER_P,measurement6.Three-phase Meter6.POWER_Q
0.0,-93.72071,2108.373,-71.83422,2088.7698,-76.214935,2054.5388,-141.56204,-142.61098,-97.78421,-192.08368,67.11603,92.79624
0.0005,-91.03119,2108.373,-71.876114,2088.7698,-76.02015,2054.5388,-140.18976,-142.85608,-96.40751,-191.86282,62.79703,95.09671
0.001,-89.21891,2108.373,-71.93099,2088.7698,-75.92196,2054.5388,-139.23265,-143.0328,-95.45449,-191.7161,59.836166,96.52051
0.0015,-86.52384,2108.373,-72.097755,2088.7698,-75.85414,2054.5388,-137.76683,-143.33739,-93.99736,-191.5189,55.293518,98.51135
0.002,-84.77595,2108.373,-72.28458,2088.7698,-75.87449,2054.5388,-136.79008,-143.57065,-93.024635,-191.40976,52.212032,99.74617
0.0025,-82.280266,2108.373,-72.692795,2088.7698,-76.01185,2054.5388,-135.36133,-143.95662,-91.595695,-191.27792,47.53624,101.46556
0.003,-80.72341,2108.373,-73.047844,2088.7698,-76.172325,2054.5388,-134.44885,-144.22711,-90.679665,-191.20341,44.398148,102.52125
0.0035,-78.56795,2108.373,-73.682304,2088.7698,-76.501,2054.5388,-133.15576,-144.62515,-89.38104,-191.08911,39.68659,103.967354
0.004,-77.25293,2108.373,-74.15261,2088.7698,-76.7631,2054.5388,-132.3494,-144.86174,-88.57137,-190.99393,36.55577,104.83181
0.0045,-75.43666,2108.373,-74.88823,1944.2523,-77.18617,2054.5388,-131.21257,-145.14952,-87.43859,-190.79173,31.88992,105.96625
0.005,-74.30969,2108.373,-75.37523,1944.2523,-77.46616,2054.5388,-130.49254,-145.27847,-86.72963,-190.60124,28.803843,106.602264
0.0055,-72.69972,2108.373,-76.06409,1944.2523,-77.84723,2054.5388,-129.43915,-145.3619,-85.71383,-190.2135,24.215546,107.36452
0.006,-71.65344,2108.373,-76.480415,1944.2523,-78.06016,2054.5388,-128.73918,-145.3386,-85.0503,-189.8806,21.182455,107.73322
0.0065,-70.08442,2108.373,-77.02957,1944.2523,-78.307304,2054.5388,-127.65759,-145.19743,-84.045,-189.27472,16.661613,108.0659
0.007,-69.01891,2108.373,-77.350136,1944.2523,-78.42795,2054.5388,-126.9,-145.04623,-83.351395,-188.8098,13.657398,108.13966
0.0075,-67.373665,2108.373,-77.788185,1944.2523,-78.56401,2054.5388,-125.690254,-144.76543,-82.25433,-188.0476,9.156469,108.03749
0.008,-66.24485,2108.373,-78.073006,1944.2523,-78.64373,2054.5388,-124.832344,-144.56276,-81.48009,-187.5156,6.156284,107.83699
0.0085,-64.522026,2108.373,-78.528694,1944.2523,-78.783966,2054.5388,-123.481155,-144.26968,-80.25773,-186.71529,1.65315,107.349106
0.009,-63.374466,2108.373,-78.87208,1944.2523,-78.912735,2054.5388,-122.54731,-144.09715,-79.411644,-186.19699,-1.3534633,106.91137
0.0095,-61.698395,1960.7109,-79.47245,1944.2523,-79.19155,2054.5388,-121.130325,-143.88759,-78.12214,-185.4628,-5.8676095,106.109245
0.01,-60.63728,1960.7109,-79.93832,1944.2523,-79.44782,2054.5388,-120.19497,-143.78383,-77.267586,-185.00758,-8.869261,105.49389
0.0105,-59.16812,1960.7109,-80.73816,1944.2523,-79.94582,2054.5388,-118.83864,-143.67313,-76.02625,-184.37308,-13.337461,104.463196
0.011,-58.286236,1960.7109,-81.331696,1944.2523,-80.34889,2054.5388,-117.9843,-143.61821,-75.242744,-183.9736,-16.27912,103.707924
0.0115,-57.12145,1960.7109,-82.28705,1944.2523,-81.038185,2054.5388,-116.79568,-143.53543,-74.1549,-183.38458,-20.617579,102.48401
0.012,-56.448326,1960.7109,-82.94515,1944.2523,-81.535095,2054.5388,-116.06769,-143.45964,-73.49412,-182.98079,-23.446526,101.60803
0.0125,-55.576332,1960.7109,-83.91835,1944.2523,-82.298416,2054.5388,-115.06508,-143.28047,-72.598694,-182.32646,-27.573017,100.20032
0.013,-55.06943,1960.7109,-84.531296,1944.2523,-82.796425,2054.5388,-114.445526,-143.10028,-72.05861,-181.84097,-30.23638,99.192276
0.0135,-52.54157,1960.7109,-84.03998,1944.2523,-82.311195,2054.5388,-111.23928,-139.47206,-68.9396,-177.67647,-32.49668,95.71884
0.014,-50.881397,1960.7109,-83.91428,1944.2523,-81.56203,2054.5388,-108.9874,-137.23143,-67.37539,-174.62459,-33.956173,93.41558
0.0145,-48.524197,1960.7109,-83.54564,1944.2523,-80.80134,2054.5388,-105.55045,-134.07343,-64.8956,-170.27261,-36.07153,89.928604
0.015,-46.985516,1960.7109,-83.31123,1944.2523,-80.46173,2054.5388,-103.236084,-132.14008,-63.17026,-167.5355,-37.46,87.598854
0.0155,-44.617477,1960.7109,-83.20107,1944.2523,-80.10112,2054.5388,-99.77566,-129.54079,-60.504894,-163.69975,-39.53838,84.132454
0.016,-42.979683,1960.7109,-83.32906,1944.2523,-79.94953,1824.3971,-97.50617,-128.0133,-58.697277,-161.33714,-40.928295,81.85684
0.0165,-40.48944,1960.7109,-83.740395,1944.2523,-79.90749,1824.3971,-94.20171,-126.013374,-55.986614,-158.1074,-43.008762,78.525276
0.017,-38.856777,1960.7109,-84.08979,1944.2523,-80.0394,1824.3971,-92.08785,-124.8566,-54.213303,-156.16887,-44.384026,76.36741
0.0175,-36.50505,1960.7109,-84.678024,1944.2523,-80.483986,1824.3971,-89.073235,-123.34902,-51.663208,-153.57085,-46.41276,73.23231
0.018,-35.01433,1960.7109,-85.137024,1944.2523,-80.90252,1824.3971,-87.185616,-122.47537,-50.06643,-152.02461,-47.735977,71.216034
0.0185,-32.915165,1960.7109,-85.98685,1944.2523,-81.58767,1824.3971,-84.55524,-121.31915,-47.86031,-149.932,-49.663364,68.31358
0.019,-31.63359,1960.7109,-86.66326,1944.2523,-82.010506,1824.3971,-82.94705,-120.62031,-46.52411,-148.65265,-50.892323,66.46443
0.0195,-29.940907,1960.7109,-87.76153,1944.2523,-82.52529,1824.3971,-80.75184,-119.62425,-44.718513,-146.84692,-52.62828,63.815998
0.02,-28.976568,1960.7109,-88.47521,1944.2523,-82.789825,1824.3971,-79.42499,-118.96471,-43.63728,-145.68704,-53.701416,62.124825
0.0205,-27.733376,1960.7109,-89.41111,1944.2523,-83.1129,1824.3971,-77.599495,-117.94013,-42.172695,-143.96704,-55.17018,59.684113
0.021,-26.98773,1960.7109,-89.91774,1685.7,-83.30342,1824.3971,-76.46818,-117.21735,-41.281616,-142.81242,-56.050438,58.102264
0.0215,-25.904741,1960.7109,-90.51285,1685.7,-83.55612,1824.3971,-74.84833,-116.067116,-40.03428,-141.04376,-57.226376,55.76895
0.022,-25.175581,1960.7109,-90.82399,1685.7,-83.6846,1824.3971,-73.793045,-115.260635,-39.23669,-139.83368,-57.920567,54.222095
0.0225,-24.05791,1960.7109,-91.20619,1685.7,-83.78355,1824.3971,-72.209366,-114.01091,-38.04968,-137.97852,-58.843384,51.89697
0.023,-23.300018,1960.7109,-91.42553,1685.7,-83.78458,1824.3971,-71.13752,-113.166985,-37.2429,-136.7266,-59.38997,50.334538
0.0235,-22.143929,1960.7109,-91.73513,1685.7,-83.726616,1824.3971,-69.48998,-111.91771,-35.985455,-134.85883,-60.13153,47.963608
0.024,-21.356558,1960.7109,-91.95104,1685.7,-83.68506,1824.3971,-68.36314,-111.11373,-35.109142,-133.6425,-60.586292,46.365078
0.0245,-20.150492,1960.7109,-92.33246,1685.7,-83.6774,1824.3971,-66.64211,-109.98405,-33.74386,-131.89825,-61.229874,43.94414
0.025,-19.34013,1960.7109,-92.648705,1685.7,-83.7297,1824.3971,-65.4847,-109.2953,-32.810715,-130.80649,-61.64496,42.320946
0.0255,-18.1493,1960.7109,-93.24396,1685.7,-83.90379,1824.3971,-63.76689,-108.37424,-31.405613,-129.2946,-62.26229,39.889446
0.026,-17.39448,1621.3069,-93.72613,1685.7,-84.07998,1824.3971,-62.654366,-107.83558,-30.48539,-128.3744,-62.67184,38.286415
0.0265,-16.350595,1621.3069,-94.56,1685.7,-84.42365,1824.3971,-61.072426,-107.129395,-29.165312,-127.12,-63.280357,35.93288
0.027,-15.72195,1621.3069,-95.16706,1685.7,-84.698265,1824.3971,-60.092403,-106.71249,-28.344376,-126.357155,-63.676617,34.4066
0.0275,-14.882089,1621.3069,-96.10096,1685.7,-85.15777,1824.3971,-58.756336,-106.136116,-27.227642,-125.29551,-64.25113,32.198704
0.028,-14.388985,1621.3069,-96.70324,1685.7,-85.476715,1824.3971,-57.956646,-105.76256,-26.56873,-124.62293,-64.60937,30.787235
0.0285,-13.744049,1621.3069,-97.515854,1685.7,-85.92896,1824.3971,-56.890594,-105.18135,-25.71382,-123.62932,-65.08688,28.760937
0.029,-13.371412,1621.3069,-97.967735,1685.7,-86.18371,1824.3971,-56.25891,-104.761345,-25.228855,-122.956085,-65.355415,27.465853
0.0295,-12.879137,1621.3069,-98.47777,1685.7,-86.452354,1824.3971,-55.406326,-104.056,-24.611677,-121.89873,-65.66934,25.598757
0.03,-12.579361,1621.3069,-98.69757,1685.7,-86.53942,1824.3971,-54.88299,-103.526024,-24.25905,-121.14886,-65.812874,24.398897
0.0305,-12.143309,1621.3069,-98.846954,1685.7,-86.52384,1824.3971,-54.13447,-102.63454,-23.788893,-119.94384,-65.92391,22.648039
0.031,-11.84768,1621.3069,-98.83417,1685.7,-86.422714,1824.3971,-53.641685,-101.97806,-23.495903,-119.08577,-65.92816,21.50283
0.0315,-11.381702,1621.3069,-98.67157,1685.7,-86.15965,1824.3971,-52.8856,-100.91406,-23.060236,-117.7248,-65.83537,19.801435
0.032,-11.053473,1621.3069,-98.48884,1685.7,-85.92811,1824.3971,-52.358723,-100.163795,-22.759106,-116.77669,-65.711624,18.670912
0.0325,-10.53892,1621.3069,-98.1468,1685.7,-85.52811,1430.7622,-51.523994,-98.9999,-22.278368,-115.312126,-65.446724,16.968344
0.033,-10.186944,1621.3069,-97.900024,1685.7,-85.243355,1430.7622,-50.9368,-98.21198,-21.934559,-114.31908,-65.225815,15.829094
0.0335,-9.658234,1621.3069,-97.54207,1685.7,-84.81426,1430.7622,-50.018234,-97.03161,-21.386189,-112.822075,-64.84198,14.116499
0.034,-9.313097,1621.3069,-97.32754,1685.7,-84.5385,1430.7622,-49.385044,-96.2541,-21.002888,-111.82742,-64.557076,12.973309
0.0345,-8.819783,1621.3069,-97.05421,1685.7,-84.15174,1430.7622,-48.421547,-95.1084,-20.412483,-110.34923,-64.09821,11.261504
0.035,-8.513005,1621.3069,-96.90325,1685.7,-83.91249,1430.7622,-47.776817,-94.35904,-20.01551,-109.374344,-63.77496,10.127815
0.0355,-8.092555,1621.3069,-96.71226,1685.7,-83.57256,1430.7622,-46.817245,-93.251915,-19.425377,-107.92532,-63.26107,8.450815
0.036,-7.8376513,1621.3069,-96.598045,1685.7,-83.34881,1430.7622,-46.18702,-92.51935,-19.039494,-106.9642,-62.897312,7.3514843
0.0365,-7.486989,1621.3069,-96.42622,1685.7,-82.99749,1430.7622,-45.255222,-91.42258,-18.47398,-105.520256,-62.31756,5.7324667
0.037,-7.268084,1621.3069,-96.29958,1307.5676,-82.74123,1430.7622,-44.64397,-90.685555,-18.104132,-104.55164,-61.90945,4.6774416
0.0375,-6.949617,1621.3069,-96.07452,1307.5676,-82.308815,1430.7622,-43.733074,-89.56484,-17.552876,-103.08307,-61.2574,3.1292298
0.038,-6.7363377,1621.3069,-95.89438,1307.5676,-81.985245,1430.7622,-43.12464,-88.80704,-17.181744,-102.09273,-60.79308,2.117605
0.0385,-6.403655,1621.3069,-95.57605,1307.5676,-81.45075,1430.7622,-42.200405,-87.6568,-16.60885,-100.59368,-60.051765,0.6231724
0.039,-6.1684976,1621.3069,-95.33601,1307.5676,-81.06853,1430.7622,-41.570995,-86.88628,-16.210703,-99.590225,-59.529495,-0.3599918
0.0395,-5.791845,1621.3069,-94.95108,1307.5676,-80.47318,1430.7622,-40.603016,-85.73551,-15.583378,-98.09063,-58.707325,-1.8190202
0.04,-5.5256433,1621.3069,-94.69092,1307.5676,-80.07307,1430.7622,-39.942,-84.97995,-15.143966,-97.10297,-58.138523,-2.7855265
0.0405,-5.111242,1621.3069,-94.31818,1307.5676,-79.48718,1430.7622,-38.93149,-83.877174,-14.458094,-95.65391,-57.264442,-4.2245183
0.041,-4.831828,1621.3069,-94.09241,1307.5676,-79.11594,1430.7622,-38.251255,-83.168655,-13.987947,-94.71681,-56.673283,-5.177436
0.0415,-4.4209833,1621.3069,-93.79989,1307.5676,-78.60043,1430.7622,-37.235073,-82.15147,-13.277771,-93.363,-55.78104,-6.5925627
0.042,-4.1596346,1215.064,-93.63769,1307.5676,-78.28783,1430.7622,-36.569695,-81.504906,-12.810294,-92.49706,-55.187195,-7.524066
0.0425,-3.7965996,1215.064,-93.43764,1307.5676,-77.86298,1430.7622,-35.603672,-80.57688,-12.134885,-91.25049,-54.303116,-8.889777
0.043,-3.5783916,1215.064,-93.323845,1307.5676,-77.60271,1430.7622,-34.98975,-79.980354,-11.710779,-90.44939,-53.718155,-9.773191
0.0435,-3.2913496,1215.064,-93.15885,1307.5676,-77.228584,1430.7622,-34.12418,-79.10619,-11.125292,-89.27985,-52.84518,-11.050669
0.044,-3.1270647,1215.064,-93.03664,1307.5676,-76.97695,1430.7622,-33.585613,-78.52745,-10.772225,-88.51225,-52.26823,-11.867133
0.0445,-2.9163606,1215.064,-92.80854,1307.5676,-76.573235,1430.7622,-32.832466,-77.6492,-10.298502,-87.36277,-51.399815,-13.031478
0.045,-2.7941756,1215.064,-92.61343,1307.5676,-76.27528,1430.7622,-32.362976,-77.0489,-10.016727,-86.58886,-50.812466,-13.76532
0.0455,-2.626801,1215.064,-92.238525,1307.5676,-75.7714,1430.7622,-31.696772,-76.11671,-9.634688,-85.404366,-49.9111,-14.805797
0.046,-2.5193543,1215.064,-91.928116,1307.5676,-75.39315,1430.7622,-31.2691,-75.4714,-9.399668,-84.59557,-49.293476,-15.461817
0.0465,-2.355445,1215.064,-91.37134,1307.5676,-74.76163,1430.7622,-30.639217,-74.46595,-9.062612,-83.351845,-48.342037,-16.389677
0.047,-2.2405846,1215.064,-90.94451,1307.5676,-74.30182,1430.7622,-30.218946,-73.775475,-8.840398,-82.50424,-47.687443,-16.97695
0.0475,-2.056163,1215.064,-90.237236,1307.5676,-73.56614,1430.7622,-29.580324,-72.71533,-8.500291,-81.21292,-46.67436,-17.819538
0.048,-1.9247909,1215.064,-89.733315,1307.5676,-73.05439,1430.7622,-29.145575,-71.99952,-8.265868,-80.34517,-45.98164,-18.360802
0.0485,-1.7180336,1215.064,-88.95134,1307.5676,-72.27128,1430.7622,-28.480984,-70.924355,-7.901458,-79.04438,-44.920547,-19.145697
0.049,-1.577287,1215.064,-88.42407,1307.5676,-71.74718,980.09595,-28.030869,-70.21191,-7.651608,-78.184,-44.201588,-19.652422
0.0495,-1.3697513,1215.064,-87.63839,1307.5676,-70.96763,980.09595,-27.353304,-69.15694,-7.2747498,-76.9109,-43.11492,-20.387815
0.05,-1.2383391,1215.064,-87.12253,1307.5676,-70.454956,980.09595,-26.905447,-68.46439,-7.027559,-76.076126,-42.38976,-20.859697
0.0505,-1.0576812,1215.064,-86.36035,1307.5676,-69.69545,980.09595,-26.24978,-67.4402,-6.673066,-74.84421,-41.304707,-21.537663
0.051,-0.9503758,1215.064,-85.85565,1307.5676,-69.191605,980.09595,-25.828098,-66.76408,-6.4529004,-74.03367,-40.585434,-21.968622
0.0515,-0.8107928,1215.064,-85.090195,1307.5676,-68.42776,980.09595,-25.224106,-65.75101,-6.153107,-72.82553,-39.514633,-22.576023
0.052,-0.731171,1215.064,-84.56473,1307.5676,-67.904434,980.09595,-24.840326,-65.071526,-5.9750037,-72.01897,-38.803814,-22.948795
0.0525,-0.6291873,1215.064,-83.73637,1307.5676,-67.08361,980.09595,-24.289398,-64.0357,-5.738528,-70.79606,-37.737663,-23.458912
0.053,-0.569898,1215.064,-83.14857,1307.5676,-66.50485,980.09595,-23.93643,-63.32928,-5.5976005,-69.96652,-37.025146,-23.76584
0.0535,-0.4875198,1215.064,-82.203476,877.78357,-65.58122,980.09595,-23.417316,-62.240902,-5.401685,-68.69451,-35.953632,-24.175896
0.054,-0.43289495,1215.064,-81.52906,877.78357,-64.92746,980.09595,-23.071754,-61.495502,-5.2745442,-67.826256,-35.233414,-24.417582
0.0545,-0.34509185,1215.064,-80.455124,877.78357,-63.894253,980.09595,-22.542864,-60.35229,-5.075979,-66.49465,-34.13526,-24.735838
0.055,-0.27985042,1215.064,-79.703865,877.78357,-63.17629,980.09595,-22.178427,-59.576202,-4.9323597,-65.59163,-33.39008,-24.925175
0.0555,-0.16962017,1215.064,-78.54013,877.78357,-62.06974,980.09595,-21.606642,-58.402073,-4.6912007,-64.22353,-32.25669,-25.178917
0.056,-0.087943286,1215.064,-77.7514,877.78357,-61.322037,980.09595,-21.207293,-57.619823,-4.510597,-63.309483,-31.49209,-25.329674
0.0565,0.04486527,1215.064,-76.56859,877.78357,-60.20245,980.09595,-20.583172,-56.45829,-4.2096677,-61.948025,-30.334051,-25.538433
0.057,0.13825732,1215.064,-75.79095,877.78357,-59.4663,980.09595,-20.153254,-55.698242,-3.9915895,-61.053776,-29.558952,-25.667992
0.0575,0.28120863,1215.064,-74.65363,877.78357,-58.389168,980.09595,-19.495968,-54.58704,-3.6458015,-59.741547,-28.399284,-25.853973
0.058,0.37549138,1215.064,-73.91891,877.78357,-57.693043,980.09595,-19.056091,-53.867836,-3.408675,-58.889835,-27.631527,-25.970318
0.0585,0.510431,785.8645,-72.85161,877.78357,-56.68246,980.09595,-18.404186,-52.82164,-3.0544739,-57.648434,-26.493896,-26.132046
0.059,0.5937437,785.8645,-72.159546,877.78357,-56.028515,980.09595,-17.980576,-52.14392,-2.825578,-56.843716,-25.749462,-26.228113
0.0595,0.7063452,785.8645,-71.13898,877.78357,-55.068546,980.09595,-17.368608,-51.149338,-2.5020025,-55.664948,-24.656376,-26.350084
0.06,0.77287006,785.8645,-70.4617,877.78357,-54.435703,980.09595,-16.979645,-50.496616,-2.302745,-54.893234,-23.943758,-26.414328
0.0605,0.86105734,785.8645,-69.43459,877.78357,-53.484924,980.09595,-16.425058,-49.524204,-2.0304463,-53.748436,-22.901798,-26.483194
0.061,0.9135511,785.8645,-68.734024,877.78357,-52.843575,980.09595,-16.073248,-48.875484,-1.8659534,-52.988285,-22.223547,-26.5079
0.0615,0.9860221,785.8645,-67.648605,877.78357,-51.861774,980.09595,-15.565593,-47.895397,-1.640123,-51.845573,-21.22529,-26.507088
0.062,1.0320907,785.8645,-66.89813,877.78357,-51.191177,980.09595,-15.238035,-47.23549,-1.4998524,-51.079716,-20.568098,-26.481913
0.0625,1.1008803,785.8645,-65.73124,877.78357,-50.160557,980.09595,-14.756174,-46.2345,-1.2973081,-49.92334,-19.595266,-26.409952
0.063,1.1479535,785.8645,-64.92828,877.78357,-49.459007,980.09595,-14.436483,-45.56136,-1.1634527,-49.148247,-18.957298,-26.339533
0.0635,2.0696888,785.8645,-63.162987,877.78357,-48.08437,980.09595,-12.946563,-43.87256,-0.09798073,-47.29241,-17.21981,-25.747358
0.064,2.6001847,785.8645,-61.908985,877.78357,-47.00877,980.09595,-12.2629175,-42.695175,0.24262863,-45.939793,-16.289322,-25.2684
0.0645,3.4189906,785.8645,-60.351673,877.78357,-45.517998,980.09595,-11.043277,-41.119183,0.9968759,-44.05169,-14.775113,-24.665554
0.065,3.9755988,785.8645,-59.53923,877.78357,-44.61881,980.09595,-10.1558485,-40.2047,1.62064,-42.90605,-13.720583,-24.337336
0.0655,4.811866,785.8645,-58.61763,877.78357,-43.444565,577.11163,-8.793464,-39.03043,2.6671968,-41.37484,-12.121572,-23.940603
0.066,5.3589754,785.8645,-58.158207,877.78357,-42.79022,577.11163,-7.9031105,-38.366894,3.3973398,-40.479305,-11.06763,-23.725481
0.0665,6.1439047,785.8645,-57.625557,877.78357,-41.988945,577.11163,-6.6404524,-37.518578,4.475066,-39.308086,-9.532045,-23.457275
0.067,6.6333413,785.8645,-57.33809,877.78357,-41.547157,577.11163,-5.8647985,-37.029564,5.1495595,-38.623585,-8.548719,-23.300629
0.0675,7.30417,785.8645,-56.953827,877.78357,-40.955364,577.11163,-4.817742,-36.370487,6.0568795,-37.700108,-7.145444,-23.07502
0.068,7.704489,785.8645,-56.695736,877.78357,-40.56912,577.11163,-4.200198,-35.957455,6.580494,-37.126987,-6.2624283,-22.917364
0.0685,8.229689,785.8645,-56.240757,877.78357,-39.95154,577.11163,-3.3889728,-35.336105,7.242083,-36.289238,-5.016988,-22.649384
0.069,8.52872,785.8645,-55.854877,877.78357,-39.49591,577.11163,-2.9151323,-34.900227,7.6074657,-35.724857,-4.2378583,-22.436987
0.0695,8.902921,785.8645,-55.103966,877.78357,-38.727764,577.11163,-2.27882,-34.187622,8.063131,-34.843994,-3.135952,-22.048397
0.07,9.106693,785.8645,-54.476173,506.8679,-38.152107,577.11163,-1.8863432,-33.665718,8.320869,-34.223904,-2.4406536,-21.739643
0.0705,9.35434,785.8645,-53.352764,506.8679,-37.18538,577.11163,-1.3152485,-32.812504,8.666768,-33.236732,-1.4402311,-21.195238
0.071,9.488293,785.8645,-52.500416,506.8679,-36.47235,577.11163,-0.9314475,-32.20329,8.886895,-32.540806,-0.79439604,-20.781307
0.0715,9.655534,785.8645,-51.10679,506.8679,-35.312027,577.11163,-0.33230287,-31.246666,9.226631,-31.448706,0.14789757,-20.093811
0.072,9.751604,785.8645,-50.12427,506.8679,-34.49256,577.11163,0.08860453,-30.593138,9.470788,-30.697794,0.7649514,-19.596191
0.0725,9.883253,785.8645,-48.60749,506.8679,-33.227867,577.11163,0.7555809,-29.610037,9.875748,-29.557434,1.6778201,-18.804955
0.073,9.967965,785.8645,-47.58759,506.8679,-32.38115,577.11163,1.2224739,-28.965162,10.172775,-28.800821,2.2750394,-18.25338
0.0735,10.096466,785.8645,-46.075443,506.8679,-31.133638,577.11163,1.9485518,-28.029474,10.654878,-27.691984,3.1574404,-17.403868
0.074,10.184757,785.8645,-45.094406,506.8679,-30.327557,577.11163,2.4427164,-27.434736,10.99369,-26.979664,3.7327213,-16.8288
0.0745,10.320712,785.8645,-43.68092,506.8679,-29.165594,577.11163,3.183755,-26.59329,11.513381,-25.962927,4.5682364,-15.959663
