Time,measurement1.Three-phase Meter1.POWER_Q,measurement1.Three-phase Meter1.VLn_RMS,measurement2.Three-phase Meter2.POWER_Q,measurement2.Three-phase Meter2.VLn_RMS,measurement3.Three-phase Meter3.POWER_Q,measurement3.Three-phase Meter3.VLn_RMS,measurement4.Three-phase Meter4.POWER_P,measurement4.Three-phase Meter4.POWER_Q,measurement5.Three-phase Meter5.POWER_P,measurement5.Three-phase Meter5.POWER_Q,measurement6.Three-phase Meter6.POWER_P,measurement6.Three-phase Meter6.POWER_Q
0.0,7.426152,283.4783,16.240635,225.64687,11.315465,243.19484,17.778925,2.0444999,20.005524,4.5655136,2.7775834,-8.012116
0.0005,6.2834463,283.4783,16.025564,225.64687,10.647058,243.19484,18.278553,1.171599,20.284697,3.6545877,3.303892,-7.947637
0.001,5.5034957,283.4783,15.869418,225.64687,10.201844,243.19484,18.600727,0.570695,20.45129,3.0364287,3.6588738,-7.9164186
0.0015,4.329445,283.4783,15.623398,225.64687,9.55431,243.19484,19.065609,-0.3416867,20.67701,2.120144,4.193446,-7.88331
0.002,3.5603874,283.4783,15.458626,225.64687,9.143283,243.19484,19.365334,-0.9455542,20.817125,1.5298402,4.546602,-7.865317
0.0025,2.451832,283.4783,15.227237,225.64687,8.563769,243.19484,19.799692,-1.8220098,21.02539,0.6886585,5.04661,-7.827234
0.003,1.7533723,283.4783,15.095286,225.64687,8.20415,243.19484,20.090008,-2.377408,21.17269,0.16131157,5.3536434,-7.784993
0.0035,0.7698368,283.4783,14.952149,225.64687,7.7079396,243.19484,20.540699,-3.15269,21.423697,-0.5787161,5.7782702,-7.6816626
0.004,0.15405776,283.4783,14.904233,225.64687,7.4076724,243.19484,20.867785,-3.6269782,21.62052,-1.0419589,6.0532503,-7.574715
0.0045,-0.7224916,283.4783,14.916217,225.64687,7.0031714,243.19484,21.416456,-4.27693,21.973248,-1.6973015,6.455481,-7.348101
0.005,-1.2825032,283.4783,14.982009,162.47823,6.7619567,243.19484,21.834093,-4.674932,22.25488,-2.1150975,6.721697,-7.149069
0.0055,-2.1029313,283.4783,15.166968,162.47823,6.434276,243.19484,22.546953,-5.237677,22.755644,-2.7324858,7.1287584,-6.7778726
0.006,-2.6483138,179.57559,15.343177,162.47823,6.2300677,243.19484,23.0854,-5.5966325,23.144464,-3.1444647,7.411962,-6.491698
0.0065,-3.4868295,179.57559,15.678866,162.47823,5.931529,243.19484,23.990221,-6.133635,23.808714,-3.785026,7.8676786,-5.9792824
0.007,-4.0735564,179.57559,15.9424,162.47823,5.7298937,243.19484,24.657097,-6.504173,24.300352,-4.2383175,8.199605,-5.599008
0.0075,-5.017582,179.57559,16.382328,162.47823,5.410218,243.19484,25.747955,-7.1007,25.100685,-4.9686666,8.744387,-4.980549
0.008,-5.6993866,179.57559,16.694128,162.47823,5.180351,243.19484,26.529947,-7.5369196,25.664457,-5.4971685,9.139987,-4.5337462
0.0085,-6.8095975,179.57559,17.168608,162.47823,4.8027716,243.19484,27.770134,-8.266105,26.539793,-6.3563704,9.791979,-3.833994
0.009,-7.6108637,179.57559,17.477453,162.47823,4.525952,243.19484,28.629622,-8.808701,27.132784,-6.9737616,10.266746,-3.3570814
0.0095,-8.902218,179.57559,17.914022,162.47823,4.0708733,243.19484,29.935728,-9.713491,28.01521,-7.962916,11.038752,-2.6411297
0.01,-9.81812,179.57559,18.178804,162.47823,3.7415218,243.19484,30.807999,-10.376738,28.592655,-8.661224,11.579131,-2.172854
0.0105,-11.261645,179.57559,18.528355,162.47823,3.2125516,243.19484,32.0912,-11.45008,29.428137,-9.756031,12.416713,-1.4945542
0.011,-12.25828,179.57559,18.726498,162.47823,2.840523,243.19484,32.919983,-12.210478,29.958052,-10.50914,12.977637,-1.0676038
0.0115,-13.782516,179.57559,18.971436,162.47823,2.2628665,243.19484,34.108994,-13.3997755,30.709585,-11.662199,13.8253765,-0.45108634
0.012,-14.803557,179.57559,19.102055,162.47823,1.86988,243.19484,34.858788,-14.212391,31.18023,-12.437213,14.393066,-0.054852474
0.0125,-16.31947,179.57559,19.258577,162.47823,1.2783053,243.19484,35.916397,-15.445431,31.842993,-13.596015,15.222802,0.5126234
0.013,-17.30835,179.57559,19.343372,162.47823,0.88762313,243.19484,36.578262,-16.26172,32.259247,-14.359135,15.756735,0.87289065
0.0135,-18.745516,179.57559,19.457773,162.47823,0.31317815,243.19484,37.514828,-17.464548,32.852406,-15.483407,16.518507,1.3875818
0.014,-19.667366,179.57559,19.5335,162.47823,-0.05911743,243.19484,38.107197,-18.245588,33.23111,-16.217142,16.993,1.7387966
0.0145,-20.99072,179.57559,19.66022,162.47823,-0.5993327,243.19484,38.9648,-19.371325,33.783756,-17.287178,17.656805,2.27786
0.015,-21.834797,179.57559,19.759964,162.47823,-0.9468265,243.19484,39.521748,-20.090673,34.144634,-17.9822,18.068832,2.6482105
0.0155,-23.04862,179.57559,19.93812,162.47823,-1.448864,292.61362,40.355934,-21.123863,34.679295,-19.000385,18.64085,3.2294104
0.016,-23.828981,179.57559,20.07703,162.47823,-1.7723002,292.61362,40.91365,-21.787247,35.03614,-19.662752,18.996164,3.6364062
0.0165,-24.967297,179.57559,20.315489,162.47823,-2.2425117,292.61362,41.75714,-22.755033,35.570255,-20.63634,19.4978,4.2787037
0.017,-25.71128,179.57559,20.492262,162.47823,-2.5469487,292.61362,42.330383,-23.385792,35.92537,-21.274155,19.814203,4.725988
0.0175,-26.812714,179.57559,20.778627,162.47823,-2.992154,292.61362,43.20105,-24.316534,36.458458,-22.214916,20.270542,5.4267774
0.018,-27.541077,179.57559,20.979307,162.47823,-3.2813363,292.61362,43.78741,-24.93129,36.81174,-22.831266,20.562906,5.909071
0.0185,-28.62494,179.57559,21.288637,162.47823,-3.7019808,292.61362,44.665863,-25.847403,37.33657,-23.738363,20.976103,6.635272
0.019,-29.338385,179.57559,21.497889,162.47823,-3.9723907,292.61362,45.245613,-26.454062,37.682793,-24.329132,21.238676,7.130992
0.0195,-30.388527,179.57559,21.81417,162.47823,-4.3599734,292.61362,46.105614,-27.354109,38.19884,-25.191244,21.616135,7.8975725
0.02,-31.072119,179.57559,22.028059,162.47823,-4.604762,292.61362,46.66803,-27.94317,38.541996,-25.748892,21.848877,8.414186
0.0205,-32.06262,179.57559,22.358255,162.47823,-4.9488726,292.61362,47.498253,-28.801395,39.058353,-26.555054,22.167894,9.194089
0.021,-32.696114,179.57559,22.588606,162.47823,-5.161358,292.61362,48.043617,-29.354494,39.407917,-27.073643,22.363874,9.71207
0.0215,-33.60052,179.57559,22.957651,162.47823,-5.4542966,292.61362,48.857693,-30.143805,39.945534,-27.823793,22.609392,10.505086
0.022,-34.172253,179.57559,23.224586,162.47823,-5.6336155,292.61362,49.402893,-30.644608,40.31644,-28.305285,22.73708,11.057234
0.0225,-34.985703,179.57559,23.663298,162.47823,-5.8806944,292.61362,50.238613,-31.35491,40.896908,-29.008238,22.884766,11.91269
0.023,-35.503387,179.57559,23.985172,336.96973,-6.0336337,292.61362,50.810856,-31.804504,41.302326,-29.467123,22.958052,12.505658
0.0235,-36.256046,179.57559,24.5134,336.96973,-6.2526627,292.61362,51.70535,-32.45151,41.939266,-30.148382,23.035997,13.43049
0.024,-36.75085,359.95572,24.89404,336.96973,-6.395162,292.61362,52.33037,-32.871635,42.381325,-30.604652,23.06996,14.07316
0.0245,-37.49847,359.95572,25.501871,336.96973,-6.611253,292.61362,53.312866,-33.50002,43.069557,-31.298124,23.098936,15.069974
0.025,-38.010418,359.95572,25.925455,336.96973,-6.760983,292.61362,53.9934,-33.929325,43.53968,-31.770676,23.113464,15.761028
0.0255,-38.809765,359.95572,26.577234,336.96973,-6.9989486,292.61362,55.04748,-34.595856,44.252136,-32.49965,23.138393,16.835173
0.026,-39.367355,359.95572,27.015343,336.96973,-7.1681986,292.61362,55.76509,-35.06323,44.72993,-32.999413,23.15858,17.55734
0.0265,-40.24219,359.95572,27.665308,336.96973,-7.4380164,292.61362,56.852528,-35.80239,45.43799,-33.766758,23.192688,18.649311
0.027,-40.848843,359.95572,28.088417,336.96973,-7.6270776,292.61362,57.572426,-36.320435,45.899853,-34.287144,23.221443,19.39121
0.0275,-41.783844,359.95572,28.70048,336.96973,-7.9196615,292.61362,58.63282,-37.12759,46.575912,-35.076305,23.265749,20.502466
0.028,-42.417,359.95572,29.092474,336.96973,-8.117966,292.61362,59.318672,-37.682625,47.012962,-35.602695,23.291752,21.235817
0.0285,-43.364113,359.95572,29.657715,336.96973,-8.414876,292.61362,60.310417,-38.525135,47.64867,-36.384766,23.326878,22.31443
0.029,-43.984303,359.95572,30.022995,336.96973,-8.609263,292.61362,60.947926,-39.08827,48.061966,-36.89859,23.339083,23.018997
0.0295,-44.886833,359.95572,30.561314,336.96973,-8.892233,292.61362,61.868713,-39.919193,48.671005,-37.653843,23.312952,24.063152
0.03,-45.46361,359.95572,30.92095,336.96973,-9.073271,292.61362,62.46473,-40.46007,49.073593,-38.145523,23.26452,24.749317
0.0305,-46.290627,359.95572,31.471004,336.96973,-9.332788,292.61362,63.3408,-41.238926,49.67918,-38.86504,23.161848,25.773947
0.031,-46.81801,359.95572,31.850277,336.96973,-9.498855,292.61362,63.92308,-41.73758,50.08658,-39.33661,23.06803,26.457695
0.0315,-47.5801,359.95572,32.44241,336.96973,-9.741022,292.61362,64.80205,-42.45816,50.706512,-40.037933,22.887386,27.49051
0.032,-48.075924,359.95572,32.851704,336.96973,-9.901932,292.61362,65.397606,-42.92846,51.12744,-40.50398,22.742298,28.184158
0.0325,-48.81611,359.95572,33.48464,336.96973,-10.148301,292.61362,66.31148,-43.627365,51.763733,-41.21095,22.493286,29.230951
0.033,-49.315308,359.95572,33.914318,336.96973,-10.319437,292.61362,66.933,-44.096977,52.189125,-41.690567,22.314999,29.947985
0.0335,-50.086624,359.95572,34.559765,336.96973,-10.591493,503.3252,67.88173,-44.818577,52.821136,-42.425617,22.039143,31.036575
0.034,-50.62087,359.95572,34.98394,336.96973,-10.78412,503.3252,68.514046,-45.315933,53.2321,-42.9264,21.853872,31.763552
0.0345,-51.452908,359.95572,35.598183,336.96973,-11.089141,503.3252,69.45051,-46.096825,53.824284,-43.69112,21.573069,32.85819
0.035,-52.024742,359.95572,35.98726,336.96973,-11.301248,503.3252,70.05862,-46.63755,54.19764,-44.204906,21.386456,33.587833
0.0355,-52.89749,359.95572,36.533756,336.96973,-11.625784,503.3252,70.93099,-47.468864,54.721886,-44.972458,21.10213,34.66124
0.036,-53.478737,359.95572,36.872303,336.96973,-11.841393,503.3252,71.48286,-48.030415,55.046402,-45.475414,20.910316,35.35801
0.0365,-54.331333,359.95572,37.345135,336.96973,-12.155431,503.3252,72.25554,-48.86503,55.497993,-46.202515,20.610664,36.366737
0.037,-54.874023,359.95572,37.641556,336.96973,-12.353883,503.3252,72.73479,-49.408566,55.780613,-46.665356,20.386442,37.01355
0.0375,-55.63663,359.95572,38.070442,336.96973,-12.629723,503.3252,73.40461,-50.1855,56.185333,-47.318645,19.995186,37.936913
0.038,-56.103706,359.95572,38.354664,336.96973,-12.797072,503.3252,73.82736,-50.668873,56.449482,-47.723736,19.704079,38.53253
0.0385,-56.738777,359.95572,38.79469,336.96973,-13.020941,503.3252,74.43975,-51.337807,56.849575,-48.290947,19.22564,39.40807
0.039,-57.120766,359.95572,39.10421,336.96973,-13.153616,503.3252,74.84733,-51.74401,57.125317,-48.643208,18.86759,39.9814
0.0395,-57.643066,359.95572,39.60317,336.96973,-13.333299,503.3252,75.47402,-52.298748,57.560993,-49.14268,18.276207,40.829094
0.04,-57.965683,359.95572,39.961308,336.96973,-13.444593,503.3252,75.91192,-52.638214,57.86879,-49.46424,17.845354,41.39233
0.0405,-60.15064,359.95572,38.787067,336.96973,-14.068325,503.3252,76.0136,-54.85736,57.966972,-50.925583,18.386238,41.646557
0.041,-60.76529,359.95572,38.726143,560.412,-14.314118,503.3252,76.29386,-55.139523,58.2921,-51.23347,18.03688,41.70805
0.0415,-61.90682,359.95572,38.724636,560.412,-14.874731,503.3252,76.63968,-55.783947,58.717007,-51.83133,17.804972,41.787212
0.042,-62.73036,571.6596,38.78178,560.412,-15.365128,503.3252,76.8069,-56.26443,58.92222,-52.28072,17.77891,41.804462
0.0425,-63.899487,571.6596,38.866474,560.412,-16.176323,503.3252,76.96878,-56.944435,59.073936,-52.951015,17.842545,41.765797
0.043,-64.565155,571.6596,38.86432,560.412,-16.6892,503.3252,77.015785,-57.327637,59.06976,-53.344604,17.92204,41.694035
0.0435,-65.338806,571.6596,38.729286,560.412,-17.309914,503.3252,76.98553,-57.75389,58.93725,-53.776585,18.061316,41.49838
0.044,-65.69831,571.6596,38.569355,560.412,-17.599281,503.3252,76.88953,-57.91255,58.79875,-53.92727,18.148952,41.302357
0.0445,-65.99429,571.6596,38.298298,560.412,-17.862068,503.3252,76.64248,-57.923817,58.57604,-53.92122,18.237923,40.90777
0.045,-66.01679,571.6596,38.142593,560.412,-17.945755,503.3252,76.42728,-57.758213,58.447685,-53.76096,18.250042,40.58673
0.0455,-65.77038,571.6596,38.00259,560.412,-17.957544,503.3252,76.09173,-57.243443,58.31996,-53.29655,18.17706,40.059803
0.046,-65.42428,571.6596,37.989437,560.412,-17.885998,503.3252,75.89588,-56.7284,58.291954,-52.84721,18.057028,39.70377
0.0465,-64.68028,571.6596,38.10899,560.412,-17.641754,503.3252,75.69794,-55.73673,58.352444,-51.985893,17.790104,39.20422
0.047,-64.07111,571.6596,38.289062,560.412,-17.38555,503.3252,75.65131,-54.955963,58.469925,-51.303944,17.564959,38.910152
0.0475,-63.04612,571.6596,38.716694,560.412,-16.89067,503.3252,75.720764,-53.650654,58.769722,-50.159607,17.181091,38.540047
0.048,-62.309486,571.6596,39.103947,560.412,-16.518608,503.3252,75.855995,-52.715725,59.05185,-49.3414,16.90222,38.34717
0.0485,-61.148624,571.6596,39.817318,560.412,-15.950479,503.3252,76.18207,-51.24625,59.585255,-48.075565,16.47261,38.12841
0.049,-60.352253,571.6596,40.361275,560.412,-15.582415,503.3252,76.46959,-50.240856,59.99848,-47.22826,16.187452,38.026638
0.0495,-59.15761,571.6596,41.238354,560.412,-15.047098,503.3252,76.982834,-48.722305,60.670334,-45.976204,15.778713,37.927944
0.05,-58.38024,571.6596,41.838024,560.412,-14.691786,503.3252,77.3591,-47.718067,61.130558,-45.159718,15.528217,37.8862
0.0505,-57.258186,571.6596,42.72059,560.412,-14.146082,503.3252,77.934685,-46.240826,61.80528,-43.95796,15.193664,37.842453
0.051,-56.53291,571.6596,43.27987,560.412,-13.770973,629.24927,78.30129,-45.27868,62.227978,-43.164017,14.998395,37.81004
0.0515,-55.446575,571.6596,44.057266,560.412,-13.194046,629.24927,78.78777,-43.857212,62.802273,-41.963787,14.742517,37.735077
0.052,-54.700466,571.6596,44.533234,560.412,-12.799738,629.24927,79.05216,-42.91014,63.138172,-41.14416,14.587749,37.658142
0.0525,-53.508877,571.6596,45.192387,560.412,-12.183061,629.24927,79.34836,-41.456753,63.565197,-39.85967,14.350942,37.48618
0.053,-52.64872,571.6596,45.605885,560.412,-11.743106,629.24927,79.476875,-40.44459,63.801453,-38.952744,14.178337,37.33925
0.0535,-51.23086,571.6596,46.21051,560.412,-11.0180235,629.24927,79.58334,-38.83129,64.094986,-37.492,13.874944,37.079643
0.054,-50.188286,571.6596,46.61789,560.412,-10.482276,629.24927,79.610886,-37.675346,64.26349,-36.44324,13.635183,36.889423
0.0545,-48.46575,571.6596,47.264774,560.412,-9.595924,629.24927,79.61308,-35.81335,64.50261,-34.74976,13.20341,36.59853
0.055,-47.213608,571.6596,47.73579,560.412,-8.952646,629.24927,79.61099,-34.48115,64.67098,-33.543575,12.86487,36.415462
0.0555,-45.20093,571.6596,48.52908,560.412,-7.9189906,629.24927,79.63128,-32.35335,64.96474,-31.632788,12.294913,36.174603
0.056,-43.78897,571.6596,49.12581,560.412,-7.1906953,629.24927,79.68324,-30.858343,65.20168,-30.304691,11.875627,36.05164
0.0565,-41.60645,571.6596,50.128384,560.412,-6.053203,629.24927,79.84231,-28.523195,65.63259,-28.259521,11.205324,35.941196
0.057,-40.13365,571.6596,50.865276,560.412,-5.274391,629.24927,80.01473,-26.928082,65.9739,-26.878895,10.745763,35.923527
0.0575,-37.939415,571.6596,52.05757,560.412,-4.093748,629.24927,80.380035,-24.519445,66.56232,-24.813236,10.0623865,35.9809
0.058,-36.50902,571.6596,52.898212,592.4869,-3.3093839,629.24927,80.692474,-22.926233,67.00095,-23.454666,9.625167,36.074715
0.0585,-34.444134,571.6596,54.203583,592.4869,-2.1542716,629.24927,81.24943,-20.594471,67.71241,-21.467695,9.02428,36.28205
0.059,-33.13507,584.11896,55.08879,592.4869,-1.4061846,629.24927,81.66506,-19.095402,68.20991,-20.187384,8.668354,36.454662
0.0595,-31.282753,584.11896,56.41262,592.4869,-0.3246382,629.24927,82.32756,-16.947355,68.967606,-18.343473,8.2091055,36.745346
0.06,-30.121275,584.11896,57.278694,592.4869,0.36820513,629.24927,82.77569,-15.587877,69.46588,-17.167088,7.954536,36.94819
0.0605,-28.475794,584.11896,58.531643,592.4869,1.3684499,629.24927,83.430374,-13.656702,70.182434,-15.477293,7.646355,37.244766
0.061,-27.433687,584.11896,59.328148,592.4869,2.0128262,629.24927,83.83908,-12.436907,70.63005,-14.3962755,7.487716,37.432056
0.0615,-25.932005,584.11896,60.45619,592.4869,2.9527783,629.24927,84.39342,-10.6958275,71.24521,-12.829978,7.3024974,37.68322
0.062,-24.961042,584.11896,61.162647,592.4869,3.564766,629.24927,84.71266,-9.582982,71.614784,-11.816087,7.2084246,37.824604
0.0625,-23.530167,584.11896,62.156204,592.4869,4.4645514,629.24927,85.11018,-7.973217,72.10744,-10.329078,7.0984526,37.9972
0.063,-22.584753,584.11896,62.776432,592.4869,5.0531173,629.24927,85.32198,-6.925869,72.39608,-9.356485,7.0397215,38.08891
0.0635,-21.17029,584.11896,63.6494,592.4869,5.919648,629.24927,85.56316,-5.387679,72.77331,-7.9216456,6.9649415,38.186916
0.064,-20.228065,584.11896,64.19554,592.4869,6.486183,629.24927,85.67867,-4.3773646,72.989334,-6.9811945,6.9214873,38.23106
0.0645,-18.819717,584.11896,64.9647,592.4869,7.3171844,629.24927,85.78999,-2.881704,73.26242,-5.592788,6.8637896,38.273335
0.065,-17.88712,584.11896,65.44518,592.4869,7.857441,629.24927,85.828064,-1.8980067,73.411064,-4.6829267,6.8297725,38.28784
0.0655,-16.50386,584.11896,66.11551,592.4869,8.6443205,629.24927,85.832954,-0.44723848,73.58114,-3.3445961,6.790895,38.285583
0.066,-15.594491,584.11896,66.527275,592.4869,9.152646,629.24927,85.80127,0.50003684,73.656784,-2.4710157,6.7724786,38.26755
0.0665,-14.250381,584.11896,67.08758,592.4869,9.891665,629.24927,85.69583,1.8897071,73.707016,-1.1875317,6.7542953,38.21915
0.067,-13.365495,584.11896,67.42038,592.4869,10.370884,629.24927,85.58403,2.792533,73.69434,-0.3478772,6.748263,38.168633
0.0675,-12.047904,584.11896,67.85774,592.4869,11.076607,609.5042,85.345825,4.1158824,73.60272,0.8944202,6.746141,38.058422
0.068,-11.167092,584.11896,68.108246,592.4869,11.54373,609.5042,85.13696,4.9818745,73.489685,1.7170311,6.744228,37.960747
0.0685,-9.828016,584.11896,68.426544,592.4869,12.2504225,609.5042,84.74196,6.267227,73.242615,2.9554157,6.7338214,37.78148
0.069,-8.912882,584.11896,68.6056,592.4869,12.731692,609.5042,84.42285,7.123559,73.027405,3.792475,6.7158685,37.639763
0.0695,-7.4894853,584.11896,68.835434,592.4869,13.478186,609.5042,83.86773,8.423964,72.63962,5.076456,6.6600604,37.398865
0.07,-6.5013895,584.11896,68.971344,592.4869,13.995793,609.5042,83.45004,9.30866,72.34479,5.9565926,6.6005588,37.22664
0.0705,-4.9535446,584.11896,69.16508,592.4869,14.805665,609.5042,82.76811,10.672316,71.86479,7.3170094,6.4777102,36.959953
0.071,-3.8803282,584.11896,69.29534,592.4869,15.367059,609.5042,82.28584,11.610734,71.52859,8.250413,6.3761277,36.78118
0.0715,-2.2163937,584.11896,69.505226,592.4869,16.236738,609.5042,81.54004,13.059604,71.01635,9.686235,6.193174,36.527126
0.072,-1.0804023,584.11896,69.65859,592.4869,16.830038,609.5042,81.03996,14.051937,70.67698,10.660319,6.056237,36.376232
0.0725,0.6457177,584.11896,69.913864,592.4869,17.7304,609.5042,80.29834,15.564264,70.18127,12.134599,5.8395987,36.175068
0.073,1.798799,584.11896,70.099464,592.4869,18.330706,609.5042,79.818405,16.580933,69.86205,13.11694,5.69436,36.058502
0.0735,3.5124753,584.11896,70.39703,592.4869,19.220377,609.5042,79.122284,18.101198,69.400604,14.575513,5.485057,35.914234
0.074,4.6331935,584.11896,70.60286,592.4869,19.800694,609.5042,78.67657,19.102613,69.10199,15.530417,5.359744,35.83343
0.0745,6.269106,584.11896,70.91277,580.50714,20.645664,609.5042,78.027115,20.569027,68.65946,16.925701,5.194297,35.723278
0.075,7.324896,584.11896,71.11308,580.50714,21.190346,609.5042,77.60464,21.51763,68.36202,17.827368,5.1022444,35.653187
0.0755,8.856632,595.22363,71.393936,580.50714,21.980944,609.5042,76.96897,22.889717,67.89912,19.135777,4.9908013,35.547512
0.076,9.845981,595.22363,71.563736,580.50714,22.492868,609.5042,76.53971,23.770082,67.574524,19.981035,4.9315495,35.468792
0.0765,11.292857,595.22363,71.78886,580.50714,23.244553,609.5042,75.87464,25.038738,67.05596,21.216305,4.863577,35.339043
0.077,12.240313,595.22363,71.919556,580.50714,23.738949,609.5042,75.41377,25.8567,66.68879,22.023857,4.824441,35.243767
