Time,measurement1.Three-phase Meter1.POWER_Q,measurement1.Three-phase Meter1.VLn_RMS,measurement2.Three-phase Meter2.POWER_Q,measurement2.Three-phase Meter2.VLn_RMS,measurement3.Three-phase Meter3.POWER_Q,measurement3.Three-phase Meter3.VLn_RMS,measurement4.Three-phase Meter4.POWER_P,measurement4.Three-phase Meter4.POWER_Q,measurement5.Three-phase Meter5.POWER_P,measurement5.Three-phase Meter5.POWER_Q,measurement6.Three-phase Meter6.POWER_P,measurement6.Three-phase Meter6.POWER_Q
0.0,-23.485983,468.3959,30.730976,447.82404,-0.7898538,472.17825,0.46733233,0.028755497,0.49039152,0.024947654,0.16102214,-0.4134148
0.0005,-23.58236,464.3604,30.808378,445.79498,-0.81121624,472.17825,0.46804023,0.028212227,0.4909469,0.02431711,0.14041124,-0.41690677
0.001,-23.646925,464.3604,30.86261,445.79498,-0.8251074,472.17825,0.4684051,0.027777674,0.49119252,0.023833878,0.12647088,-0.41854808
0.0015,-23.734592,464.3604,30.940336,445.79498,-0.8435757,472.17825,0.46874097,0.027077723,0.491338,0.0230769,0.10538986,-0.41994506
0.002,-23.781586,464.3604,30.98546,445.79498,-0.853409,472.17825,0.4688103,0.026608324,0.49128604,0.022590637,0.09129977,-0.42017192
0.0025,-23.828516,464.3604,31.037312,445.79498,-0.8631287,472.17825,0.468708,0.025983686,0.49101946,0.02195231,0.07024408,-0.41950592
0.003,-23.842793,464.3604,31.059559,445.79498,-0.865759,472.17825,0.46852934,0.02564743,0.4907536,0.0216155,0.056324378,-0.41843677
0.0035,-23.840181,464.3604,31.074274,445.79498,-0.86392426,472.17825,0.468164,0.025292465,0.4903073,0.021272993,0.035701755,-0.4159906
0.004,-23.82526,464.3604,31.073193,445.79498,-0.859403,472.17825,0.46791345,0.025168737,0.49003315,0.02115725,0.022151422,-0.41385505
0.0045,-23.790585,464.3604,31.060127,445.79498,-0.8494023,469.50577,0.46761623,0.025143465,0.48974887,0.021136738,0.0021349937,-0.40998286
0.005,-23.764627,464.3604,31.047487,445.79498,-0.8418574,469.50577,0.4675241,0.025218487,0.48968846,0.021203183,-0.01101435,-0.40699056
0.0055,-23.731243,464.3604,31.029867,445.79498,-0.83148915,469.50577,0.46760792,0.025420692,0.4898404,0.02136873,-0.030488161,-0.40190578
0.006,-23.718016,464.3604,31.023125,445.79498,-0.8264142,469.50577,0.46782985,0.025579466,0.49011198,0.02148596,-0.043332435,-0.3981062
0.0065,-23.718538,464.3604,31.026083,445.79498,-0.82308,469.50577,0.46839944,0.0257973,0.49075362,0.021608993,-0.062431183,-0.39174113
0.007,-23.734615,464.3604,31.038937,445.79498,-0.8242018,469.50577,0.46892223,0.025888547,0.49130613,0.021623442,-0.07506444,-0.38700867
0.0075,-23.779226,464.3604,31.069973,445.79498,-0.83084863,469.50577,0.46842977,0.02584097,0.49077526,0.021438554,-0.09252015,-0.3779779
0.008,-23.82094,464.3604,31.101309,445.79498,-0.83780843,469.50577,0.46369737,0.02542934,0.48574466,0.020996498,-0.0996366,-0.3680193
0.0085,-23.901884,464.3604,31.167933,445.79498,-0.8503733,469.50577,0.45732945,0.024710145,0.47890174,0.02025375,-0.11005565,-0.35364118
0.009,-23.960373,464.3604,31.21627,445.79498,-0.8588442,469.50577,0.45346177,0.024187664,0.4747268,0.01972049,-0.11679855,-0.34437752
0.0095,-24.045559,464.3604,31.289177,445.79498,-0.8697304,469.50577,0.44809598,0.023376865,0.46891844,0.018899402,-0.1265859,-0.33088344
0.01,-24.095335,464.3604,31.334711,445.79498,-0.8750168,469.50577,0.44474792,0.022830542,0.4652951,0.018364318,-0.13287559,-0.32212833
0.0105,-24.15201,464.3604,31.392862,445.79498,-0.87916535,469.50577,0.44000396,0.022057027,0.46017808,0.017627187,-0.14192602,-0.30934444
0.011,-24.174316,464.3604,31.422068,445.79498,-0.87909025,469.50577,0.4370093,0.021599822,0.45696685,0.01720405,-0.14769076,-0.30106178
0.0115,-24.18269,464.3604,31.44841,445.79498,-0.87445235,469.50577,0.43277463,0.021042118,0.45245954,0.016703792,-0.15592816,-0.28902116
0.012,-24.172459,464.3604,31.453928,445.79498,-0.86845493,469.50577,0.4301415,0.02077074,0.4496795,0.016470008,-0.16115393,-0.28126302
0.0125,-24.138708,464.3604,31.446299,445.79498,-0.8558315,469.50577,0.42652315,0.020521132,0.4458898,0.016267598,-0.16862427,-0.27003825
0.013,-24.108631,464.3604,31.43332,445.79498,-0.84581745,469.50577,0.42436022,0.020452445,0.44364205,0.016221335,-0.1733848,-0.26282313
0.0135,-24.06142,464.3604,31.408415,445.79498,-0.8306484,469.50577,0.42152852,0.020466587,0.44072095,0.016252272,-0.18024701,-0.2523662
0.014,-24.033955,464.3604,31.392326,445.79498,-0.8219442,469.50577,0.4199257,0.020529749,0.4390806,0.01631344,-0.18466613,-0.24560405
0.0145,-24.006802,464.3604,31.37559,445.79498,-0.81322926,469.50577,0.41795135,0.02065372,0.43706423,0.016414892,-0.19110557,-0.23569778
0.015,-24.001543,464.3604,31.372452,445.79498,-0.8110937,469.50577,0.4169012,0.020726679,0.43598914,0.016459499,-0.19529118,-0.22920002
0.0155,-24.016293,464.3604,31.38327,445.79498,-0.81356466,469.50577,0.41566497,0.02077372,0.4347066,0.016447587,-0.20142494,-0.21951994
0.016,-24.041288,464.3604,31.401508,445.79498,-0.81848,469.50577,0.4150185,0.020742092,0.4340173,0.016369658,-0.20541649,-0.2130609
0.0165,-24.097761,464.3604,31.44374,445.79498,-0.82934666,469.50577,0.4142224,0.020581966,0.43313152,0.016137455,-0.21123898,-0.20330067
0.017,-24.143576,464.3604,31.479095,445.79498,-0.8379343,469.50577,0.4137513,0.0204018,0.43258303,0.015912201,-0.21499266,-0.1967263
0.0175,-24.215015,464.3604,31.536795,452.50763,-0.8509237,469.50577,0.41304746,0.020042019,0.43174213,0.01549741,-0.22039336,-0.18675761
0.018,-24.258934,469.9324,31.574636,452.50763,-0.8585168,469.50577,0.41253823,0.019762095,0.43113604,0.0151933115,-0.22381885,-0.18005091
0.0185,-24.310875,469.9324,31.624037,452.50763,-0.86650556,469.50577,0.411673,0.019333962,0.4301317,0.014743656,-0.22866274,-0.16994421
0.019,-24.332403,469.9324,31.648783,452.50763,-0.86874086,469.50577,0.4110188,0.019063568,0.42940152,0.0144759435,-0.23168565,-0.16320975
0.0195,-24.34093,469.9324,31.669596,452.50763,-0.8667359,469.50577,0.4099477,0.018733164,0.4282478,0.014163685,-0.23590876,-0.15317671
0.02,-24.33026,469.9324,31.671513,452.50763,-0.8618147,469.50577,0.40920845,0.018587464,0.4274722,0.014032607,-0.23852576,-0.14656691
0.0205,-24.292797,469.9324,31.657549,452.50763,-0.84978086,469.50577,0.40811652,0.018491171,0.42636797,0.013964772,-0.2421819,-0.13680679
0.021,-24.257402,469.9324,31.63926,452.50763,-0.8395032,469.50577,0.40744647,0.018511627,0.42571384,0.014002496,-0.24446137,-0.13041042
0.0215,-24.197548,469.9324,31.603981,452.50763,-0.8227063,476.23734,0.40660018,0.018654637,0.42492115,0.014160662,-0.24768335,-0.12097013
0.022,-24.158749,469.9324,31.579042,452.50763,-0.8119256,476.23734,0.40617508,0.01880662,0.42454553,0.014311652,-0.2497204,-0.11475698
0.0225,-24.111204,469.9324,31.546144,452.50763,-0.7986142,476.23734,0.40577525,0.019075973,0.42423055,0.014558941,-0.25263423,-0.10549988
0.023,-24.090816,469.9324,31.530552,452.50763,-0.7926685,476.23734,0.40566686,0.019256333,0.42417967,0.014708443,-0.2544884,-0.09932943
0.0235,-24.081692,469.9324,31.520685,452.50763,-0.7890406,476.23734,0.40572459,0.019474601,0.42430183,0.014864339,-0.25713295,-0.09000857
0.024,-24.090654,469.9324,31.524181,452.50763,-0.7901112,476.23734,0.40587744,0.019563757,0.42447785,0.014903036,-0.25879356,-0.083717816
0.0245,-24.124601,469.9324,31.544106,452.50763,-0.79604536,476.23734,0.4062007,0.019592343,0.42480418,0.014845611,-0.26110113,-0.074128956
0.025,-24.157988,469.9324,31.565863,452.50763,-0.802055,476.23734,0.40643275,0.019525668,0.42501372,0.014730349,-0.2624952,-0.06762461
0.0255,-24.21725,469.9324,31.606731,452.50763,-0.8124509,476.23734,0.40671182,0.019314243,0.42523783,0.014461089,-0.2643315,-0.057716742
0.026,-24.256184,469.9324,31.635784,452.50763,-0.81926084,476.23734,0.4068158,0.019120231,0.42529207,0.014238617,-0.26536927,-0.051036343
0.0265,-24.304499,469.9324,31.675095,452.50763,-0.82756585,476.23734,0.4067984,0.018789992,0.42519605,0.013886721,-0.26662832,-0.040967587
0.027,-24.325026,469.9324,31.694645,452.50763,-0.83085346,476.23734,0.4066604,0.018572759,0.4250108,0.013669023,-0.26726833,-0.034265105
0.0275,-24.332695,469.9324,31.708954,452.50763,-0.8310078,476.23734,0.40627667,0.018301316,0.4245763,0.01341474,-0.26794317,-0.024298424
0.028,-24.321157,469.9324,31.7068,452.50763,-0.82746917,476.23734,0.4059277,0.018181631,0.42421278,0.013315178,-0.2682191,-0.01774609
0.0285,-24.2804,469.9324,31.68565,452.50763,-0.81673,476.23734,0.4053301,0.018123688,0.42362833,0.013292441,-0.268409,-0.008093227
0.029,-24.240318,469.9324,31.66083,452.50763,-0.80648345,476.23734,0.40492854,0.018173302,0.42325982,0.013364813,-0.2684098,-0.0017812484
0.0295,-24.167873,469.9324,31.611952,452.50763,-0.78842086,476.23734,0.40440288,0.018374352,0.42281765,0.013593023,-0.268259,0.007518417
0.03,-24.116518,469.9324,31.575254,452.50763,-0.776085,476.23734,0.4041459,0.018578716,0.42263502,0.013807625,-0.26807293,0.0136306435
0.0305,-24.044561,469.9324,31.521177,452.50763,-0.75965357,476.23734,0.40395364,0.018952243,0.42257127,0.014179535,-0.2676789,0.02272611
0.031,-24.005411,469.9324,31.48985,452.50763,-0.7511894,476.23734,0.4039695,0.019217446,0.42267567,0.014429968,-0.26733705,0.028781526
0.0315,-23.967394,469.9324,31.455563,452.50763,-0.743352,476.23734,0.4042055,0.019585032,0.4230332,0.014758666,-0.26668733,0.03791695
0.032,-23.957941,469.9324,31.44343,452.50763,-0.74174315,476.23734,0.40448028,0.019786878,0.4233774,0.014921054,-0.2661433,0.04407403
0.0325,-23.967276,469.9324,31.442911,452.50763,-0.74471176,476.23734,0.40501913,0.019980948,0.4239816,0.015047386,-0.26511934,0.053442296
0.033,-23.987589,469.9324,31.453753,452.50763,-0.749803,476.23734,0.4054108,0.020024704,0.42439386,0.015044881,-0.2642729,0.05977959
0.0335,-24.032408,469.9324,31.482868,452.50763,-0.7605286,476.23734,0.40596023,0.019960795,0.42494074,0.014917854,-0.2627221,0.069395304
0.034,-24.066612,469.9324,31.507238,452.50763,-0.76841104,476.23734,0.40625548,0.019843759,0.42521465,0.014766354,-0.2614892,0.07584781
0.0345,-24.115252,469.9324,31.544165,457.42908,-0.7788445,476.23734,0.4065273,0.019590652,0.42543718,0.014479205,-0.25933635,0.08552001
0.035,-24.140268,475.36127,31.565054,457.42908,-0.7836261,476.23734,0.40657532,0.019399783,0.42544615,0.014276405,-0.257705,0.09192047
0.0355,-24.158604,475.36127,31.584936,457.42908,-0.78615797,476.23734,0.40643683,0.019127231,0.42525896,0.014005105,-0.2549913,0.101378486
0.036,-24.155499,475.36127,31.588049,457.42908,-0.7844506,476.23734,0.4062166,0.018978408,0.42502245,0.013872102,-0.25302756,0.107555844
0.0365,-24.125793,475.36127,31.575178,457.42908,-0.77690095,476.23734,0.40574688,0.018846678,0.4245605,0.013778533,-0.24989717,0.11659438
0.037,-24.090506,475.36127,31.555098,457.42908,-0.7687912,476.23734,0.40537947,0.018833134,0.42422563,0.013798186,-0.24771494,0.12246362
0.0375,-24.020578,475.36127,31.510885,457.42908,-0.7528743,476.23734,0.404843,0.018939957,0.42376593,0.01395136,-0.24433756,0.13105413
0.038,-23.967894,475.36127,31.475159,457.42908,-0.740676,476.23734,0.4045418,0.019089082,0.42353305,0.014125245,-0.2420297,0.13666524
0.0385,-23.889734,475.36127,31.418522,457.42908,-0.72225094,476.23734,0.4042474,0.019397747,0.42335477,0.014459199,-0.23848788,0.14496742
0.039,-23.84322,475.36127,31.38248,457.42908,-0.71134895,480.55774,0.4041786,0.019642659,0.42337066,0.014703701,-0.23606364,0.15046427
0.0395,-23.789562,475.36127,31.337032,457.42908,-0.69923174,480.55774,0.40428534,0.020013243,0.42360035,0.015052305,-0.23230027,0.15871467
0.04,-23.76774,475.36127,31.31548,457.42908,-0.694792,480.55774,0.4044851,0.020233702,0.42387453,0.01524339,-0.2296793,0.16424644
0.0405,-23.758656,475.36127,31.299511,457.42908,-0.6938814,480.55774,0.40493095,0.020482803,0.4244112,0.015428591,-0.22553094,0.17261468
0.041,-23.768076,475.36127,31.300194,457.42908,-0.69660884,480.55774,0.40529287,0.020568585,0.42480817,0.015470338,-0.22259484,0.17823747
0.0415,-23.801498,475.36127,31.316433,457.42908,-0.7041501,480.55774,0.4058461,0.020570992,0.4253769,0.015404814,-0.21790197,0.18670575
0.042,-23.833195,475.36127,31.334856,457.42908,-0.71039397,480.55774,0.4061701,0.020481993,0.42569026,0.015283874,-0.21457241,0.19234113
0.0425,-23.882774,475.36127,31.367552,457.42908,-0.71974415,480.55774,0.40652254,0.020253219,0.42599514,0.015019112,-0.20928456,0.20070705
0.043,-23.911797,475.36127,31.388512,457.42908,-0.72504914,480.55774,0.40663224,0.020057376,0.42606378,0.014813912,-0.20558035,0.20618102
0.0435,-23.93992,475.36127,31.411835,457.42908,-0.7301382,480.55774,0.4065806,0.019748345,0.42595285,0.014514224,-0.19980164,0.21416646
0.044,-23.94448,475.36127,31.418655,457.42908,-0.7308138,480.55774,0.40640402,0.01956261,0.42574742,0.014348778,-0.19583423,0.21930796
0.0445,-23.926617,475.36127,31.411953,457.42908,-0.7267651,480.55774,0.40596324,0.01936379,0.42528903,0.014194204,-0.18977055,0.2267195
0.045,-23.898254,475.36127,31.395325,457.42908,-0.72054756,480.55774,0.40558794,0.019304851,0.42492345,0.014170278,-0.1856841,0.23146044
0.0455,-23.834473,475.36127,31.353308,457.42908,-0.70659995,480.55774,0.4049794,0.019343657,0.42436627,0.01426483,-0.17952628,0.23830172
0.046,-23.7816,475.36127,31.316132,457.42908,-0.695133,480.55774,0.40459514,0.019455714,0.42403752,0.014410717,-0.17541192,0.242713
0.0465,-23.695684,475.36127,31.252508,457.42908,-0.67677665,480.55774,0.40412912,0.019734116,0.4236809,0.014728243,-0.16921985,0.24917163
0.047,-23.639784,475.36127,31.208958,457.42908,-0.66514295,480.55774,0.40392813,0.019973006,0.42356485,0.014982829,-0.16506097,0.25341135
0.0475,-23.567362,475.36127,31.14903,457.42908,-0.65089816,480.55774,0.4038275,0.020365745,0.4235978,0.01538042,-0.15873238,0.2597317
0.048,-23.531115,475.36127,31.116257,457.42908,-0.6445757,480.55774,0.40389282,0.020624243,0.42375338,0.015625505,-0.15442017,0.26394364
0.0485,-23.499945,475.36127,31.082237,457.42908,-0.6407412,480.55774,0.4041786,0.020944642,0.42414817,0.015915798,-0.14775537,0.27027717
0.049,-23.495419,475.36127,31.071062,457.42908,-0.6419138,480.55774,0.4044593,0.0210914,0.42448112,0.016036019,-0.14315042,0.27450368
0.0495,-23.510275,475.36127,31.071276,457.42908,-0.6483423,480.55774,0.40493912,0.021191316,0.42500365,0.016086971,-0.13596714,0.28081122
0.05,-23.531677,475.36127,31.080862,457.42908,-0.65480703,480.55774,0.405249,0.021170804,0.42531782,0.016035581,-0.13099065,0.28495958
0.0505,-23.57263,475.36127,31.104048,457.42908,-0.66576076,480.55774,0.40562013,0.021022435,0.42566204,0.015851747,-0.123263314,0.29102722
0.051,-23.600182,475.36127,31.121553,457.42908,-0.6726773,480.55774,0.40576643,0.020869726,0.4257736,0.015679536,-0.11796049,0.2949264
0.0515,-23.632433,475.36127,31.14414,457.42908,-0.68060297,480.55774,0.4057865,0.020579737,0.4257346,0.015393807,-0.10983844,0.30049264
0.052,-23.643217,475.36127,31.15312,457.61093,-0.6833581,480.55774,0.40565917,0.020385105,0.42557138,0.015214122,-0.10435231,0.30398783
0.0525,-23.637774,476.69553,31.152624,457.61093,-0.6826925,480.55774,0.4052707,0.020138474,0.42515054,0.015006332,-0.09608253,0.3088879
0.053,-23.618225,476.69553,31.14133,457.61093,-0.6788802,480.55774,0.40490422,0.020024234,0.42478386,0.01492965,-0.090575665,0.3119305
0.0535,-23.565794,476.69553,31.107439,457.61093,-0.6685065,480.55774,0.4042639,0.0199601,0.4241758,0.014929313,-0.082362264,0.31619602
0.054,-23.517977,476.69553,31.074802,457.61093,-0.65903586,480.55774,0.40382108,0.019995205,0.4237783,0.015009184,-0.07692623,0.3188746
0.0545,-23.434895,476.69553,31.015554,457.61093,-0.64237005,480.55774,0.4032243,0.02016337,0.42327204,0.015237335,-0.06881931,0.3227145
0.055,-23.37785,476.69553,30.972986,457.61093,-0.63072026,480.55774,0.40291303,0.02033949,0.42303306,0.015444743,-0.06342399,0.32519484
0.0555,-23.299755,476.69553,30.911158,457.61093,-0.614697,480.55774,0.4026284,0.020664956,0.4228662,0.015796684,-0.055292986,0.3288516
0.056,-23.257465,476.69553,30.874744,457.61093,-0.6062763,481.2535,0.4025783,0.020895753,0.4228915,0.016029749,-0.049809832,0.33126712
0.0565,-23.214481,476.69553,30.832287,457.61093,-0.5987062,481.2535,0.40270114,0.021213366,0.42311713,0.016327048,-0.04142633,0.33486745
0.057,-23.201393,476.69553,30.814316,457.61093,-0.5974958,481.2535,0.4028925,0.021378923,0.42336512,0.016464839,-0.035698358,0.33724093
0.0575,-23.210443,476.69553,30.810022,457.61093,-0.60151696,481.2535,0.40218234,0.021407446,0.42263055,0.01646921,-0.026665257,0.33936343
0.058,-23.234602,476.69553,30.818039,457.61093,-0.6079557,481.2535,0.3981661,0.021077123,0.4183448,0.016191807,-0.019842912,0.33634084
0.0585,-23.279871,476.69553,30.837324,457.61093,-0.620157,481.2535,0.3926769,0.020556226,0.41246027,0.01573339,-0.009120579,0.33230728
0.059,-23.316277,476.69553,30.857903,457.61093,-0.62906957,481.2535,0.38931212,0.020167433,0.4088356,0.015388347,-0.0016565535,0.3298652
0.0595,-23.36942,476.69553,30.892494,457.61093,-0.64172673,481.2535,0.38459516,0.01955144,0.40373978,0.014843421,0.009908885,0.32642144
0.06,-23.397821,476.69553,30.91331,457.61093,-0.648653,481.2535,0.38162172,0.01913993,0.40052667,0.014484585,0.017800735,0.32420066
0.0605,-23.421648,476.69553,30.934013,457.61093,-0.655225,481.2535,0.37736607,0.01856137,0.39594263,0.013993129,0.029803276,0.32089236
0.061,-23.42197,476.69553,30.937653,457.61093,-0.6564237,481.2535,0.37465405,0.018223908,0.39303866,0.013717769,0.037862804,0.31867063
0.0615,-23.397463,476.69553,30.924902,457.61093,-0.6530223,481.2535,0.3707852,0.017821947,0.3889286,0.013409575,0.04997743,0.3152901
0.062,-23.36569,476.69553,30.904152,457.61093,-0.6474439,481.2535,0.3683575,0.017634107,0.38637325,0.013281804,0.058053218,0.3130038
0.0625,-23.300268,476.69553,30.857294,457.61093,-0.635202,481.2535,0.3649863,0.017475225,0.38286066,0.013206251,0.07016678,0.30953598
0.063,-23.249516,476.69553,30.818575,457.61093,-0.6255869,481.2535,0.36294904,0.017443046,0.38075617,0.013224484,0.07825936,0.30720344
0.0635,-23.172106,476.69553,30.756092,457.61093,-0.6113739,481.2535,0.3602429,0.017485643,0.37798297,0.0133263245,0.090468675,0.30367163
0.064,-23.12533,476.69553,30.71581,457.61093,-0.6034333,481.2535,0.35868332,0.017554462,0.37639445,0.0134216575,0.0986842,0.3012839
0.0645,-23.070877,476.69553,30.664198,457.61093,-0.59577763,481.2535,0.35670874,0.017675102,0.37438506,0.0135642,0.11116327,0.29761222
0.065,-23.048508,476.69553,30.638773,457.61093,-0.5942829,481.2535,0.3556152,0.017745173,0.3732695,0.013635392,0.119599015,0.29506797
0.0655,-23.038883,476.69553,30.617624,457.61093,-0.5978555,481.2535,0.3542638,0.017788216,0.3718667,0.013671545,0.13242242,0.29102826
0.066,-23.04804,476.69553,30.61526,457.61093,-0.6037542,481.2535,0.35350722,0.017765008,0.37106386,0.013635592,0.14106116,0.28813642
0.0665,-23.080639,476.69553,30.627039,457.61093,-0.61646277,481.2535,0.35250777,0.017634613,0.36996973,0.013485476,0.1540829,0.2834206
0.067,-23.11054,476.69553,30.642353,457.61093,-0.62638557,481.2535,0.35188287,0.017485444,0.36926517,0.013327392,0.16275129,0.27998766
0.0675,-23.159014,476.69553,30.670187,457.61093,-0.6412668,481.2535,0.35093087,0.017189214,0.3681779,0.013027837,0.17562693,0.27436402
0.068,-23.187332,476.69553,30.687963,457.61093,-0.6499474,481.2535,0.35025722,0.016965328,0.3674066,0.012806628,0.18406187,0.2702896
0.0685,-23.216106,476.69553,30.707006,457.61093,-0.65937304,481.2535,0.34915134,0.016621312,0.36616185,0.0124814715,0.19639519,0.26370114
0.069,-23.222454,476.69553,30.711586,454.2101,-0.6626176,481.2535,0.3483482,0.016409056,0.3652789,0.012291091,0.20436466,0.25901076
0.0695,-23.209042,474.09488,30.702766,454.2101,-0.6625717,481.2535,0.34706783,0.016149739,0.3639084,0.0120762745,0.2159042,0.25158107
0.07,-23.184492,474.09488,30.685627,454.2101,-0.65945745,481.2535,0.3461915,0.016031913,0.36299387,0.011992524,0.22332086,0.2464005
0.0705,-23.127352,474.09488,30.64428,454.2101,-0.6510159,481.2535,0.34489757,0.0159481,0.36168176,0.0119643845,0.23406638,0.23834433
