Time,Modbus1.Q_level,Modbus2.Q_level,Modbus3.Q_level,measurement1.Three-phase Meter1.VLn_RMS,measurement2.Three-phase Meter2.VLn_RMS,measurement3.Three-phase Meter3.VLn_RMS
0.0,2164299.5,1030097.44,462166.97,1112.0017,1064.0608,556.6035
0.0005,2185347.2,1046607.7,475336.3,1112.0017,1064.0608,556.6035
0.001,2214471.5,1072129.0,495934.56,1112.0017,1064.0608,556.6035
0.0015,2232985.0,1089400.9,510179.56,1112.0017,1064.0608,556.6035
0.002,2260226.2,1115620.5,531836.7,1112.0017,1064.0608,556.6035
0.0025,2278161.0,1133374.5,546189.25,1112.0017,1064.0608,556.6035
0.003,2304705.0,1160371.6,567357.0,1112.0017,1064.0608,556.6035
0.0035,2322144.5,1178396.9,581202.06,1112.0017,1064.0608,556.6035
0.004,2348239.0,1205564.6,601562.7,1112.0017,1064.0608,1307.9844
0.0045,2367296.5,1227002.0,614867.94,1112.0017,1064.0608,1307.9844
0.005,2398396.2,1273986.0,632607.9,1112.0017,1064.0608,1307.9844
0.0055,2418184.0,1318891.5,640534.9,1112.0017,1064.0608,1307.9844
0.006,2446004.2,1402053.2,643073.06,1112.0017,1064.0608,1307.9844
0.0065,2467424.2,1458421.9,638731.2,1112.0017,1064.0608,1307.9844
0.007,2511735.5,1525387.6,628406.25,1112.0017,1064.0608,1307.9844
0.0075,2548976.5,1552773.1,623562.56,1112.0017,1064.0608,1307.9844
0.008,2605287.8,1573109.8,625436.8,1112.0017,1064.0608,1307.9844
0.0085,2635353.5,1580819.6,633467.8,1112.0017,1064.0608,1307.9844
0.009,2664690.0,1594639.5,651912.0,1112.0017,1064.0608,1307.9844
0.0095,2677698.2,1606914.2,665042.06,1112.0017,1064.0608,1307.9844
0.01,2698423.8,1626754.6,681797.44,1112.0017,1064.0608,1307.9844
0.0105,2716854.5,1639142.8,690602.3,1112.0017,1064.0608,1307.9844
0.011,2750277.8,1656819.4,702166.9,1112.0017,1064.0608,1307.9844
0.0115,2773570.2,1669275.5,710051.3,1112.0017,1064.0608,1307.9844
0.012,2807136.2,1689903.8,722672.6,1112.0017,1064.0608,1307.9844
0.0125,2828865.5,1704279.6,730975.25,1112.0017,1064.0608,1307.9844
0.013,2861378.8,1725355.0,741990.06,1112.0017,1064.0608,1307.9844
0.0135,2882253.2,1738937.2,748257.6,1112.0017,1064.0608,1307.9844
0.014,2909489.8,1759027.2,756944.06,1112.0017,1064.0608,1307.9844
0.0145,2924048.8,1771848.1,762839.06,1112.0017,1064.0608,1307.9844
0.015,2942185.2,1787853.8,771905.8,1487.1566,1525.0431,1307.9844
0.0155,2953807.5,1794880.9,777556.25,1487.1566,1525.0431,1307.9844
0.016,2972755.8,1799481.5,784301.4,1487.1566,1525.0431,1307.9844
0.0165,2985905.2,1799874.8,787376.56,1487.1566,1525.0431,1307.9844
0.017,3003641.5,1799803.5,790412.06,1487.1566,1525.0431,1307.9844
0.0175,3012837.8,1800693.1,792049.6,1487.1566,1525.0431,1307.9844
0.018,3022583.8,1803840.2,794848.4,1487.1566,1525.0431,1307.9844
0.0185,3027262.5,1806655.1,797071.6,1487.1566,1525.0431,1307.9844
0.019,3033053.2,1811222.4,800537.0,1487.1566,1525.0431,1307.9844
0.0195,3036396.5,1814448.2,802560.94,1487.1566,1525.0431,1307.9844
0.02,3040413.2,1819720.9,804701.3,1487.1566,1525.0431,1307.9844
0.0205,3042258.5,1823438.1,805433.44,1487.1566,1525.0431,1307.9844
0.021,3043777.5,1828768.2,805523.6,1487.1566,1525.0431,1307.9844
0.0215,3043968.2,1831857.1,804941.4,1487.1566,1525.0431,1562.3796
0.022,3042796.2,1835670.1,803058.0,1487.1566,1525.0431,1562.3796
0.0225,3040812.5,1837731.0,801061.44,1487.1566,1525.0431,1562.3796
0.023,3035887.2,1840061.1,796907.9,1487.1566,1525.0431,1562.3796
0.0235,3031497.5,1840892.8,793440.3,1487.1566,1525.0431,1562.3796
0.024,3023841.2,1840637.1,787515.1,1487.1566,1525.0431,1562.3796
0.0245,3018244.8,1839478.5,783321.44,1487.1566,1525.0431,1562.3796
0.025,3009146.0,1836886.6,776987.8,1487.1566,1525.0431,1562.3796
0.0255,3002532.0,1835149.5,772819.56,1487.1566,1525.0431,1562.3796
0.026,2991929.5,1833256.5,766635.7,1487.1566,1525.0431,1562.3796
0.0265,2984656.2,1832652.1,762510.06,1487.1566,1525.0431,1562.3796
0.027,2974009.8,1832663.9,756237.94,1487.1566,1525.0431,1562.3796
0.0275,2967312.2,1833148.2,751975.25,1487.1566,1525.0431,1562.3796
0.028,2932389.5,1809813.6,727054.44,1487.1566,1525.0431,1562.3796
0.0285,2901652.5,1786890.1,699301.4,1487.1566,1525.0431,1562.3796
0.029,2861793.0,1749602.0,658841.06,1487.1566,1525.0431,1562.3796
0.0295,2838539.5,1720910.9,634007.25,1487.1566,1525.0431,1562.3796
0.03,2805550.0,1673306.4,601919.25,1487.1566,1525.0431,1562.3796
0.0305,2782756.8,1641344.6,583641.75,1487.1566,1525.0431,1562.3796
0.031,2746217.5,1597691.9,557954.7,1487.1566,1525.0431,1562.3796
0.0315,2721605.0,1572276.2,540113.25,1487.1566,1525.0431,1562.3796
0.032,2687741.5,1538152.6,511228.66,1575.6493,1525.0431,1562.3796
0.0325,2667799.8,1517094.4,491535.5,1575.6493,1658.5568,1562.3796
0.033,2639367.0,1488603.9,464213.47,1575.6493,1658.5568,1562.3796
0.0335,2619119.5,1472970.0,448580.25,1575.6493,1658.5568,1562.3796
0.034,2585119.8,1456038.2,428617.7,1575.6493,1658.5568,1562.3796
0.0345,2561045.0,1448623.8,416399.53,1575.6493,1658.5568,1562.3796
0.035,2525949.8,1440851.4,397619.84,1575.6493,1658.5568,1562.3796
0.0355,2504275.2,1436531.1,384391.12,1575.6493,1658.5568,1562.3796
0.036,2473508.8,1430377.9,364281.78,1575.6493,1658.5568,1562.3796
0.0365,2452868.2,1426593.0,351453.03,1575.6493,1658.5568,1562.3796
0.037,2420194.0,1421746.9,333681.44,1575.6493,1658.5568,1562.3796
0.0375,2397248.2,1419092.4,322551.03,1575.6493,1658.5568,1562.3796
0.038,2361717.0,1415970.2,305979.66,1575.6493,1658.5568,1562.3796
0.0385,2337379.2,1414644.4,294626.3,1575.6493,1658.5568,1562.3796
0.039,2299309.2,1414286.1,277164.84,1575.6493,1658.5568,1424.7947
0.0395,2272537.2,1415258.5,265534.7,1575.6493,1658.5568,1424.7947
0.04,2230412.0,1418080.2,248553.11,1575.6493,1658.5568,1424.7947
0.0405,2200636.0,1418756.4,237575.5,1575.6493,1658.5568,1424.7947
0.041,2151880.5,1408707.4,222215.42,1575.6493,1658.5568,1424.7947
0.0415,2117790.2,1390465.6,214069.47,1575.6493,1658.5568,1424.7947
0.042,2065438.4,1347063.9,207704.12,1575.6493,1658.5568,1424.7947
0.0425,2027775.9,1314014.0,207739.62,1575.6493,1658.5568,1424.7947
0.043,1962260.1,1273182.6,211529.45,1575.6493,1658.5568,1424.7947
0.0435,1912319.0,1257310.1,213734.97,1575.6493,1658.5568,1424.7947
0.044,1834375.6,1249791.1,212453.1,1575.6493,1658.5568,1424.7947
0.0445,1785644.9,1251125.5,207804.34,1575.6493,1658.5568,1424.7947
0.045,1722412.1,1255018.0,196887.75,1575.6493,1658.5568,1424.7947
0.0455,1686054.2,1256851.2,188781.88,1575.6493,1658.5568,1424.7947
0.046,1635548.1,1258543.9,177611.23,1575.6493,1658.5568,1424.7947
0.0465,1602492.8,1259406.1,171095.55,1575.6493,1658.5568,1424.7947
0.047,1553232.9,1260082.2,162016.52,1575.6493,1658.5568,1424.7947
0.0475,1521086.5,1259770.6,156037.89,1575.6493,1658.5568,1424.7947
0.048,1473809.9,1258256.2,147306.4,1575.6493,1658.5568,1424.7947
0.0485,1442292.1,1257001.1,142021.36,1159.7295,1658.5568,1424.7947
0.049,1394585.8,1255118.5,135238.42,1159.7295,1243.9027,1424.7947
0.0495,1363244.1,1253563.2,131238.22,1159.7295,1243.9027,1424.7947
0.05,1319092.9,1250035.4,125140.51,1159.7295,1243.9027,1424.7947
0.0505,1292231.0,1246966.4,120633.266,1159.7295,1243.9027,1424.7947
0.051,1254903.4,1242562.2,113303.74,1159.7295,1243.9027,1424.7947
0.0515,1230775.9,1240680.1,108452.89,1159.7295,1243.9027,1424.7947
0.052,1194304.1,1240092.8,101959.98,1159.7295,1243.9027,1424.7947
0.0525,1169920.2,1240799.4,98307.65,1159.7295,1243.9027,1424.7947
0.053,1134293.4,1241369.4,93592.33,1159.7295,1243.9027,1424.7947
0.0535,1110742.4,1235923.9,91026.086,1159.7295,1243.9027,1424.7947
0.054,1075773.6,1207580.6,89968.34,1159.7295,1243.9027,1424.7947
0.0545,1053286.2,1174059.9,92798.45,1159.7295,1243.9027,1424.7947
0.055,1019137.06,1110663.8,103933.13,1159.7295,1243.9027,870.0014
0.0555,993836.25,1067891.6,115337.86,1159.7295,1243.9027,870.0014
0.056,949961.44,1013645.44,135148.6,1159.7295,1243.9027,870.0014
0.0565,918071.75,985693.5,147969.5,1159.7295,1243.9027,870.0014
0.057,871323.9,952680.06,164254.88,1159.7295,1243.9027,870.0014
0.0575,843269.2,933848.56,172928.27,1159.7295,1243.9027,870.0014
0.058,806664.0,907699.2,183581.62,1159.7295,1243.9027,870.0014
0.0585,785017.5,891209.56,189715.31,1159.7295,1243.9027,870.0014
0.059,755204.5,867397.5,197836.19,1159.7295,1243.9027,870.0014
0.0595,736815.7,851685.25,202420.14,1159.7295,1243.9027,870.0014
0.06,711061.06,828108.6,207979.14,1159.7295,1243.9027,870.0014
0.0605,694327.0,812859.3,211052.67,1159.7295,1243.9027,870.0014
0.061,668006.06,791934.8,215442.52,1159.7295,1243.9027,870.0014
0.0615,649086.56,779551.3,218515.39,1159.7295,1243.9027,870.0014
0.062,619622.4,762520.0,223190.08,1159.7295,1243.9027,870.0014
0.0625,600561.4,751410.3,225958.1,1159.7295,1243.9027,870.0014
0.063,574596.9,734515.5,228900.95,1159.7295,1243.9027,870.0014
0.0635,559103.06,723433.0,229916.52,1159.7295,1243.9027,870.0014
0.064,537372.0,708238.8,230341.48,1159.7295,1243.9027,870.0014
0.0645,523127.94,699487.5,230248.17,1159.7295,1243.9027,870.0014
0.065,501735.5,688359.56,230048.72,670.62726,1243.9027,870.0014
0.0655,487770.1,681909.3,229994.22,670.62726,752.92126,870.0014
0.066,467965.1,673086.06,229974.03,670.62726,752.92126,870.0014
0.0665,455712.8,667593.7,229928.64,670.62726,752.92126,870.0014
0.067,438683.56,659773.8,229775.7,670.62726,752.92126,870.0014
0.0675,428154.0,654779.44,229651.55,670.62726,752.92126,870.0014
0.068,413611.5,647564.25,229490.89,670.62726,752.92126,870.0014
0.0685,404806.84,643020.25,229399.53,670.62726,752.92126,870.0014
0.069,392872.66,636874.8,229197.3,670.62726,752.92126,870.0014
0.0695,385636.38,633327.9,228942.11,670.62726,752.92126,870.0014
0.07,375599.03,628689.44,228282.48,670.62726,752.92126,870.0014
0.0705,369399.03,625796.44,227636.64,670.62726,752.92126,870.0014
0.071,360841.28,621304.0,226386.23,670.62726,752.92126,870.0014
0.0715,355661.94,618082.4,225390.2,670.62726,752.92126,556.7283
0.072,348588.7,613028.6,223671.52,670.62726,752.92126,556.7283
0.0725,344206.44,609652.9,222366.64,670.62726,752.92126,556.7283
0.073,337910.8,604759.9,220145.19,670.62726,752.92126,556.7283
0.0735,333831.25,601624.7,218482.6,670.62726,752.92126,556.7283
0.074,327852.06,597049.1,215745.0,670.62726,752.92126,556.7283
0.0745,323961.4,594052.25,213790.89,670.62726,752.92126,556.7283
0.075,318240.8,589610.56,210728.05,670.62726,752.92126,556.7283
0.0755,314482.22,586687.7,208623.33,670.62726,752.92126,556.7283
0.076,308666.2,581589.94,205443.89,670.62726,752.92126,556.7283
0.0765,303542.47,573073.9,203722.9,670.62726,752.92126,556.7283
0.077,293093.28,543405.8,203715.42,670.62726,752.92126,556.7283
0.0775,284545.6,512638.84,206648.0,670.62726,752.92126,556.7283
0.078,267764.03,458132.1,210449.81,670.62726,752.92126,556.7283
0.0785,254785.52,424893.66,214581.3,670.62726,752.92126,556.7283
0.079,233283.08,380039.66,221916.23,670.62726,752.92126,556.7283
0.0795,218283.48,353505.75,227254.77,670.62726,752.92126,556.7283
0.08,196065.8,318503.72,235110.22,670.62726,752.92126,556.7283
0.0805,181760.95,298521.75,239668.86,670.62726,752.92126,556.7283
0.081,161333.78,273351.94,244584.44,670.62726,752.92126,556.7283
0.0815,148762.42,258872.03,246270.5,424.97513,752.92126,556.7283
0.082,132429.27,238397.17,246475.06,424.97513,498.88388,556.7283
0.0825,123512.93,224775.1,245432.33,424.97513,498.88388,556.7283
0.083,112508.42,204815.58,243028.12,424.97513,498.88388,556.7283
0.0835,105935.49,192733.62,241366.52,424.97513,498.88388,556.7283
0.084,96051.13,177572.31,239282.03,424.97513,498.88388,556.7283
0.0845,89315.29,169310.16,238214.8,424.97513,498.88388,556.7283
0.085,79586.59,158545.02,236882.92,424.97513,498.88388,556.7283
0.0855,73783.35,151826.56,235993.61,424.97513,498.88388,556.7283
0.086,66407.35,142097.7,234408.4,424.97513,498.88388,556.7283
0.0865,62282.254,135998.28,233099.27,424.97513,498.88388,556.7283
0.087,56937.734,127770.89,230720.55,424.97513,498.88388,556.7283
0.0875,53813.668,122955.05,228877.6,424.97513,498.88388,556.7283
0.088,49702.492,116641.52,225822.88,424.97513,498.88388,350.86478
0.0885,47306.992,112994.055,223670.94,424.97513,498.88388,350.86478
0.089,44121.62,108361.05,220402.58,424.97513,498.88388,350.86478
0.0895,42229.938,105800.47,218240.75,424.97513,498.88388,350.86478
0.09,39840.508,102581.67,215011.75,424.97513,498.88388,350.86478
0.0905,38676.24,100710.17,212817.5,424.97513,498.88388,350.86478
0.091,37733.316,98212.305,209349.14,424.97513,498.88388,350.86478
0.0915,37628.105,96810.96,206872.39,424.97513,498.88388,350.86478
0.092,38046.26,95279.27,202891.58,424.97513,498.88388,350.86478
0.0925,38567.055,94683.03,200076.6,424.97513,498.88388,350.86478
0.093,39549.707,94309.266,195670.27,424.97513,498.88388,350.86478
0.0935,40323.336,94265.92,192645.1,424.97513,498.88388,350.86478
0.094,41677.9,94297.81,188026.77,424.97513,498.88388,350.86478
0.0945,42706.66,94326.99,184912.92,424.97513,498.88388,350.86478
0.095,44370.473,94392.26,180207.48,424.97513,498.88388,350.86478
0.0955,45509.883,94469.33,177052.89,424.97513,498.88388,350.86478
0.096,47194.184,94657.57,172290.4,424.97513,498.88388,350.86478
0.0965,48290.46,94832.11,169091.03,424.97513,498.88388,350.86478
0.097,49877.77,95159.59,164242.12,424.97513,498.88388,350.86478
0.0975,50900.754,95420.35,160978.12,424.97513,498.88388,350.86478
0.098,52373.707,95835.23,156048.31,209.26756,498.88388,350.86478
0.0985,53310.906,96105.02,152753.17,209.26756,254.56793,350.86478
0.099,54681.625,96446.15,147832.3,209.26756,254.56793,350.86478
0.0995,55583.957,96624.87,144589.06,209.26756,254.56793,350.86478
0.1,56942.96,96845.375,139819.14,209.26756,254.56793,350.86478
0.1005,57851.195,96986.52,136727.92,209.26756,254.56793,350.86478
0.101,59226.27,97218.26,132248.19,209.26756,254.56793,350.86478
0.1015,60149.35,97383.07,129376.51,209.26756,254.56793,350.86478
0.102,61551.953,97621.305,125238.57,209.26756,254.56793,350.86478
0.1025,62509.15,97762.305,122590.94,209.26756,254.56793,350.86478
0.103,63990.26,97940.31,118767.23,209.26756,254.56793,350.86478
0.1035,65012.99,98048.77,116299.73,209.26756,254.56793,350.86478
0.104,66610.12,98216.3,112689.38,209.26756,254.56793,350.86478
0.1045,67723.95,98343.22,110320.734,209.26756,254.56793,183.25026
0.105,69474.21,98567.625,106792.89,209.26756,254.56793,183.25026
0.1055,70710.97,98753.74,104435.7,209.26756,254.56793,183.25026
0.106,72687.54,99098.81,100856.77,209.26756,254.56793,183.25026
0.1065,74100.73,99377.25,98432.125,209.26756,254.56793,183.25026
0.107,76369.15,99863.37,94724.0,209.26756,254.56793,183.25026
0.1075,77980.88,100229.35,92206.336,209.26756,254.56793,183.25026
0.108,80549.03,100836.96,88376.58,209.26756,254.56793,183.25026
0.1085,82349.81,101274.06,85794.74,209.26756,254.56793,183.25026
0.109,85156.3,101972.94,81902.74,209.26756,254.56793,183.25026
0.1095,87080.81,102456.375,79305.84,209.26756,254.56793,183.25026
0.11,90017.41,103192.234,75426.97,209.26756,254.56793,183.25026
0.1105,91989.55,103677.31,72854.56,209.26756,254.56793,183.25026
0.111,94946.95,104378.19,69017.03,209.26756,254.56793,183.25026
0.1115,96901.35,104817.86,66467.375,209.26756,254.56793,183.25026
0.112,99790.695,105427.1,62643.066,209.26756,254.56793,183.25026
0.1125,101674.15,105792.016,60085.234,209.26756,254.56793,183.25026
0.113,104427.03,106287.65,56217.906,209.26756,254.56793,183.25026
0.1135,106212.89,106579.195,53617.387,209.26756,254.56793,183.25026
0.114,108802.14,106963.61,49675.555,209.26756,254.56793,183.25026
0.1145,110474.74,107186.56,47018.85,209.26756,254.56793,183.25026
0.115,112899.62,107464.984,42999.605,209.26756,254.56793,183.25026
0.1155,114465.83,107613.56,40306.566,100.95483,254.56793,183.25026
0.116,116734.57,107777.4,36275.254,100.95483,254.56793,183.25026
0.1165,118199.414,107850.68,33615.18,100.95483,161.15627,183.25026
0.117,120328.91,107902.52,29701.86,100.95483,161.15627,183.25026
0.1175,121702.47,107902.82,27165.078,100.95483,161.15627,183.25026
0.118,123707.84,107853.75,23494.287,100.95483,161.15627,183.25026
0.1185,125010.055,107791.16,21151.002,100.95483,161.15627,183.25026
0.119,126928.555,107665.41,17788.988,100.95483,161.15627,183.25026
0.1195,128196.15,107564.68,15647.707,100.95483,161.15627,183.25026
0.12,130097.79,107399.914,12557.946,100.95483,161.15627,183.25026
0.1205,131379.17,107287.336,10561.286,100.95483,161.15627,183.25026
0.121,133345.77,107126.11,7623.8257,100.95483,161.15627,183.25026
0.1215,134692.45,107027.77,5675.589,100.95483,161.15627,183.25026
0.122,136788.55,106903.12,2732.9197,100.95483,161.15627,183.25026
0.1225,138239.25,106837.02,739.6574,100.95483,161.15627,101.47374
0.123,140491.64,106758.33,-2318.7224,100.95483,161.15627,101.47374
0.1235,142043.67,106720.73,-4406.448,100.95483,161.15627,101.47374
0.124,144439.25,106676.94,-7604.6777,100.95483,161.15627,101.47374
0.1245,146070.5,106654.03,-9772.346,100.95483,161.15627,101.47374
0.125,148550.0,106620.45,-13048.874,100.95483,161.15627,101.47374
0.1255,150217.95,106596.805,-15232.882,100.95483,161.15627,101.47374
0.126,152725.02,106553.25,-18478.709,100.95483,161.15627,101.47374
0.1265,154393.83,106519.22,-20613.021,100.95483,161.15627,101.47374
0.127,156886.47,106457.32,-23749.809,100.95483,161.15627,101.47374
0.1275,158537.36,106410.664,-25800.725,100.95483,161.15627,101.47374
0.128,162503.42,99388.03,-38070.55,100.95483,161.15627,101.47374
0.1285,166053.31,97970.59,-41864.83,100.95483,161.15627,101.47374
0.129,172965.9,95798.484,-51495.426,100.95483,161.15627,101.47374
0.1295,177971.45,94405.086,-60086.32,100.95483,161.15627,101.47374
0.13,185619.56,91943.67,-74710.555,100.95483,161.15627,101.47374
0.1305,190678.11,89616.555,-84588.15,100.95483,161.15627,101.47374
0.131,197859.11,84732.43,-98300.586,100.95483,161.15627,101.47374
0.1315,202175.55,80697.2,-106454.516,100.95483,161.15627,101.47374
0.132,207943.5,74053.29,-117504.21,100.95483,161.15627,101.47374
0.1325,211561.19,69521.17,-124417.69,100.95483,161.15627,101.47374
0.133,217150.31,62845.59,-134505.69,100.95483,161.15627,101.47374
0.1335,221108.03,58569.55,-141104.92,189.12013,161.15627,101.47374
0.134,227287.69,52542.832,-150807.03,189.12013,161.15627,101.47374
0.1345,231453.42,48801.15,-157199.5,189.12013,197.7222,101.47374
0.135,237746.77,43437.69,-166916.1,189.12013,197.7222,101.47374
0.1355,242049.02,39847.633,-173614.86,189.12013,197.7222,101.47374
0.136,248690.05,34184.945,-184007.55,189.12013,197.7222,101.47374
0.1365,253097.86,30189.049,-191016.2,189.12013,197.7222,101.47374
0.137,259254.56,23972.928,-201273.05,189.12013,197.7222,101.47374
0.1375,262861.84,19753.459,-207780.61,189.12013,197.7222,101.47374
0.138,267517.72,13328.57,-217024.1,189.12013,197.7222,101.47374
0.1385,270285.47,8936.483,-222957.52,189.12013,197.7222,101.47374
0.139,274259.72,2121.7175,-231766.02,189.12013,197.7222,101.47374
0.1395,276898.38,-2566.3303,-237664.67,189.12013,197.7222,101.47374
0.14,280818.16,-9760.783,-246547.4,189.12013,197.7222,101.47374
0.1405,283322.38,-14650.481,-252435.39,189.12013,197.7222,257.32358
0.141,286801.75,-22158.947,-261129.42,189.12013,197.7222,257.32358
0.1415,288905.72,-27303.512,-266819.44,189.12013,197.7222,257.32358
0.142,291724.5,-35211.484,-275206.1,189.12013,197.7222,257.32358
0.1425,293369.78,-40565.85,-280691.16,189.12013,197.7222,257.32358
0.143,295484.75,-48641.758,-288686.66,189.12013,197.7222,257.32358
0.1435,296682.12,-54040.4,-293801.9,189.12013,197.7222,257.32358
0.144,298246.06,-62176.99,-301079.28,189.12013,197.7222,257.32358
0.1445,299193.56,-67630.05,-305670.16,189.12013,197.7222,257.32358
0.145,300553.75,-75795.02,-312251.97,189.12013,197.7222,257.32358
0.1455,301443.16,-81169.5,-316516.28,189.12013,197.7222,257.32358
0.146,302771.6,-89042.14,-322860.9,189.12013,197.7222,257.32358
0.1465,303667.12,-94155.27,-327117.47,189.12013,197.7222,257.32358
0.147,305059.75,-101669.29,-333621.38,189.12013,197.7222,257.32358
0.1475,306027.78,-106614.664,-338074.56,189.12013,197.7222,257.32358
0.148,307533.44,-113987.336,-344990.7,189.12013,197.7222,257.32358
