Time,Modbus1.Q_level,Modbus2.Q_level,Modbus3.Q_level,measurement1.Three-phase Meter1.VLn_RMS,measurement2.Three-phase Meter2.VLn_RMS,measurement3.Three-phase Meter3.VLn_RMS
0.0,262374.3,305826.0,-294579.7,440.2697,456.99692,431.7971
0.0005,262511.5,305392.47,-294868.0,440.2697,456.99692,431.7971
0.001,262673.44,304657.16,-295495.8,440.2697,456.99692,431.7971
0.0015,262759.72,304147.2,-296003.0,440.2697,456.99692,431.7971
0.002,262864.9,303427.88,-296786.53,440.2697,456.99692,431.7971
0.0025,262912.78,303024.94,-297247.22,440.2697,456.99692,431.7971
0.003,262941.44,302599.78,-297725.06,440.2697,456.99692,431.7971
0.0035,262941.28,302457.6,-297863.4,440.2697,456.99692,431.7971
0.004,262953.72,302452.94,-297788.12,440.2697,456.99692,431.7971
0.0045,262995.03,302568.56,-297570.3,440.2697,456.99692,431.7971
0.005,263116.44,302866.12,-297048.12,440.2697,456.99692,431.7971
0.0055,263219.8,303114.25,-296605.84,440.2697,456.99692,431.7971
0.006,263362.8,303503.22,-295875.3,440.2697,456.99692,431.7971
0.0065,263430.6,303735.6,-295387.94,440.2697,456.99692,431.7971
0.007,263476.53,303968.3,-294748.06,440.2697,456.99692,431.7971
0.0075,263470.28,304013.6,-294425.25,440.2697,456.99692,431.7971
0.008,263407.5,303893.56,-294142.97,440.2697,456.99692,431.7971
0.0085,263325.8,303692.47,-294094.06,440.2697,456.99692,431.7971
0.009,263139.44,303251.6,-294201.12,440.2697,456.99692,431.7971
0.0095,262977.3,302905.8,-294352.8,440.2697,456.99692,431.7971
0.01,262694.66,302383.72,-294610.72,440.2697,456.99692,431.7971
0.0105,262493.84,302075.12,-294749.12,440.2697,456.99692,431.7971
0.011,262193.2,301732.97,-294818.12,440.2697,462.95026,437.69888
0.0115,262000.88,301617.84,-294734.25,440.2697,462.95026,437.69888
0.012,261734.61,301645.94,-294367.6,440.2697,462.95026,437.69888
0.0125,261575.89,301798.7,-293951.75,440.2697,462.95026,437.69888
0.013,261379.78,302193.16,-293085.7,440.2697,462.95026,437.69888
0.0135,261274.14,302527.38,-292373.6,445.15268,462.95026,437.69888
0.014,261147.05,303055.1,-291181.94,445.15268,462.95026,437.69888
0.0145,261075.27,303378.75,-290356.62,445.15268,462.95026,437.69888
0.015,260970.97,303751.9,-289176.8,445.15268,462.95026,437.69888
0.0155,260898.2,303898.7,-288483.97,445.15268,462.95026,437.69888
0.016,260771.95,303934.06,-287654.62,445.15268,462.95026,437.69888
0.0165,260668.67,303827.3,-287263.78,445.15268,462.95026,437.69888
0.017,260477.61,303492.56,-286925.2,445.15268,462.95026,437.69888
0.0175,260327.47,303183.16,-286842.38,445.15268,462.95026,437.69888
0.018,260080.12,302659.3,-286870.72,445.15268,462.95026,437.69888
0.0185,259912.0,302311.5,-286947.66,445.15268,462.95026,437.69888
0.019,259670.36,301859.25,-287064.75,445.15268,462.95026,437.69888
0.0195,259524.11,301638.03,-287099.56,445.15268,462.95026,437.69888
0.02,259338.75,301468.62,-287017.28,445.15268,462.95026,437.69888
0.0205,259242.58,301474.0,-286844.28,445.15268,462.95026,437.69888
0.021,259141.2,301647.4,-286389.16,445.15268,462.95026,437.69888
0.0215,259098.45,301850.12,-285960.9,445.15268,462.95026,437.69888
0.022,259059.2,302227.78,-285180.75,445.15268,462.95026,437.69888
0.0225,259042.05,302491.34,-284605.53,445.15268,462.95026,437.69888
0.023,259015.22,302830.0,-283746.7,445.15268,462.95026,437.69888
0.0235,258986.95,302980.75,-283229.5,445.15268,462.95026,437.69888
0.024,258913.53,303045.84,-282609.06,445.15268,462.95026,437.69888
0.0245,258834.23,302970.6,-282330.66,445.15268,462.95026,437.69888
0.025,258662.86,302686.6,-282140.2,445.15268,462.95026,437.69888
0.0255,258512.33,302401.8,-282155.53,445.15268,462.95026,437.69888
0.026,258243.17,301886.5,-282342.7,445.15268,462.95026,437.69888
0.0265,258046.06,301519.7,-282532.4,445.15268,462.95026,437.69888
0.027,257738.31,301001.1,-282812.3,445.15268,462.95026,437.69888
0.0275,257537.42,300715.34,-282941.44,445.15268,462.95026,437.69888
0.028,257253.78,300432.28,-282970.25,445.15268,457.53668,436.22043
0.0285,257083.53,300361.1,-282845.0,445.15268,457.53668,436.22043
0.029,256863.42,300436.34,-282415.78,445.15268,457.53668,436.22043
0.0295,256744.28,300591.25,-281968.88,445.15268,457.53668,436.22043
0.03,256602.1,300927.03,-281093.75,445.15268,457.53668,436.22043
0.0305,256528.81,301182.0,-280409.06,445.15268,457.53668,436.22043
0.031,256440.66,301536.5,-279317.62,440.49252,457.53668,436.22043
0.0315,256389.97,301711.9,-278606.2,440.49252,457.53668,436.22043
0.032,256313.31,301828.4,-277655.94,440.49252,457.53668,436.22043
0.0325,256251.81,301785.4,-277145.62,440.49252,457.53668,436.22043
0.033,256131.6,301524.28,-276612.34,440.49252,457.53668,436.22043
0.0335,256026.84,301230.66,-276417.1,440.49252,457.53668,436.22043
0.034,255831.36,300653.62,-276344.12,440.49252,457.53668,436.22043
0.0345,255682.08,300219.22,-276414.47,440.49252,457.53668,436.22043
0.035,255449.77,299565.5,-276619.62,440.49252,457.53668,436.22043
0.0355,255301.55,299168.28,-276773.03,440.49252,457.53668,436.22043
0.036,255100.67,298691.5,-276947.44,440.49252,457.53668,436.22043
0.0365,254985.88,298479.22,-276983.38,440.49252,457.53668,436.22043
0.037,254850.02,298345.44,-276868.78,440.49252,457.53668,436.22043
0.0375,254787.6,298376.12,-276664.3,440.49252,457.53668,436.22043
0.038,254736.28,298569.12,-276171.38,440.49252,457.53668,436.22043
0.0385,254723.08,298766.12,-275735.22,440.49252,457.53668,436.22043
0.039,254718.64,299097.97,-274976.97,440.49252,457.53668,436.22043
0.0395,254718.08,299301.28,-274450.4,440.49252,457.53668,436.22043
0.04,254708.25,299506.3,-273714.9,440.49252,457.53668,436.22043
0.0405,254686.45,299543.53,-273312.84,440.49252,457.53668,436.22043
0.041,254614.66,299428.88,-272907.47,440.49252,457.53668,436.22043
0.0415,254534.53,299239.84,-272788.53,440.49252,457.53668,436.22043
0.042,254363.86,298811.75,-272833.16,440.49252,457.53668,436.22043
0.0425,254221.06,298455.9,-272989.5,440.49252,457.53668,436.22043
0.043,253976.27,297872.88,-273337.7,440.49252,457.53668,436.22043
0.0435,255245.56,298957.22,-274516.62,440.49252,457.53668,436.22043
0.044,254902.31,298440.3,-275197.47,440.49252,457.53668,436.22043
0.0445,254758.6,298236.94,-275830.88,440.49252,457.53668,436.22043
0.045,254655.19,298114.22,-276940.53,440.49252,457.53668,436.22043
0.0455,254673.69,298112.1,-277676.03,440.49252,454.59332,434.38345
0.046,254836.64,298104.16,-278545.8,440.49252,454.59332,434.38345
0.0465,255005.14,298036.44,-278867.12,440.49252,454.59332,434.38345
0.047,255255.39,297825.97,-278916.47,440.49252,454.59332,434.38345
0.0475,255377.3,297649.1,-278717.34,440.49252,454.59332,434.38345
0.048,255495.8,297397.66,-278252.1,439.00204,454.59332,434.38345
0.0485,255564.36,297249.78,-277940.94,439.00204,454.59332,434.38345
0.049,255695.95,297008.56,-277600.94,439.00204,454.59332,434.38345
0.0495,255800.89,296799.34,-277497.2,439.00204,454.59332,434.38345
0.05,255945.69,296373.12,-277545.94,439.00204,454.59332,434.38345
0.0505,256015.53,296015.22,-277714.06,439.00204,454.59332,434.38345
0.051,256081.47,295405.62,-278149.1,439.00204,454.59332,434.38345
0.0515,256113.05,294980.44,-278529.1,439.00204,454.59332,434.38345
0.052,256150.28,294375.8,-279139.5,439.00204,454.59332,434.38345
0.0525,256164.75,294036.12,-279505.53,439.00204,454.59332,434.38345
0.053,256159.97,293687.4,-279885.6,439.00204,454.59332,434.38345
0.0535,256148.19,293584.38,-279985.3,439.00204,454.59332,434.38345
0.054,256157.69,293615.56,-279886.72,439.00204,454.59332,434.38345
0.0545,256203.02,293734.94,-279670.5,439.00204,454.59332,434.38345
0.055,256330.8,294006.03,-279169.62,439.00204,454.59332,434.38345
0.0555,256435.89,294221.22,-278749.66,439.00204,454.59332,434.38345
0.056,256579.0,294547.22,-278059.12,439.00204,454.59332,434.38345
0.0565,256647.23,294733.72,-277602.22,439.00204,454.59332,434.38345
0.057,256698.66,294903.62,-277006.5,439.00204,454.59332,434.38345
0.0575,256700.39,294917.72,-276711.03,439.00204,454.59332,434.38345
0.058,256651.8,294764.28,-276469.7,439.00204,454.59332,434.38345
0.0585,256580.03,294549.88,-276449.75,439.00204,454.59332,434.38345
0.059,256415.78,294109.12,-276598.5,439.00204,454.59332,434.38345
0.0595,256276.52,293772.34,-276776.8,439.00204,454.59332,434.38345
0.06,256045.5,293265.8,-277074.16,439.00204,454.59332,434.38345
0.0605,255888.52,292965.16,-277239.8,439.00204,454.59332,434.38345
0.061,255660.12,292632.94,-277361.97,439.00204,454.59332,434.38345
0.0615,255516.31,292523.72,-277322.16,439.00204,454.59332,434.38345
0.062,255316.86,292555.75,-277036.38,439.00204,454.59332,434.38345
0.0625,255207.72,292701.62,-276684.34,439.00204,456.49805,438.4493
0.063,255081.11,293060.34,-275926.84,439.00204,456.49805,438.4493
0.0635,255022.23,293353.72,-275296.06,439.00204,456.49805,438.4493
0.064,254961.28,293802.28,-274231.0,439.00204,456.49805,438.4493
0.0645,254931.14,294064.78,-273495.16,439.00204,456.49805,438.4493
0.065,254888.58,294341.34,-272448.78,439.00204,456.49805,438.4493
0.0655,254857.12,294419.38,-271842.8,441.14023,456.49805,438.4493
0.066,254785.23,294357.78,-271137.84,441.14023,456.49805,438.4493
0.0665,254714.14,294195.8,-270824.16,441.14023,456.49805,438.4493
0.067,254566.33,293798.2,-270585.53,441.14023,456.49805,438.4493
0.0675,254445.14,293459.16,-270560.97,441.14023,456.49805,438.4493
0.068,254245.8,292902.34,-270662.66,441.14023,456.49805,438.4493
0.0685,254112.88,292538.84,-270777.28,441.14023,456.49805,438.4493
0.069,253926.89,292074.1,-270937.5,441.14023,456.49805,438.4493
0.0695,253816.55,291853.34,-270991.94,441.14023,456.49805,438.4493
0.07,253678.52,291701.4,-270930.06,441.14023,456.49805,438.4493
0.0705,253607.9,291727.88,-270770.44,441.14023,456.49805,438.4493
0.071,253549.39,291934.75,-270343.8,441.14023,456.49805,438.4493
0.0715,253539.12,292155.2,-269945.06,441.14023,456.49805,438.4493
0.072,253552.95,292548.72,-269218.53,441.14023,456.49805,438.4493
0.0725,253570.31,292813.22,-268686.56,441.14023,456.49805,438.4493
0.073,253590.94,293145.1,-267896.66,441.14023,456.49805,438.4493
0.0735,253592.69,293287.88,-267423.97,441.14023,456.49805,438.4493
0.074,253563.3,293346.8,-266868.1,441.14023,456.49805,438.4493
0.0745,253515.45,293273.47,-266629.62,441.14023,456.49805,438.4493
0.075,253393.22,293000.28,-266489.9,441.14023,456.49805,438.4493
0.0755,253280.08,292730.8,-266532.38,441.14023,456.49805,438.4493
0.076,253069.89,292244.4,-266746.9,441.14023,456.49805,438.4493
0.0765,252912.34,291899.66,-266945.1,441.14023,456.49805,438.4493
0.077,252671.55,291416.62,-267240.88,441.14023,456.49805,438.4493
0.0775,252515.36,291157.9,-267388.72,441.14023,456.49805,438.4493
0.078,252299.17,290918.97,-267459.88,441.14023,456.49805,438.4493
0.0785,252171.31,290876.44,-267371.7,441.14023,456.49805,438.4493
0.079,252014.47,290985.72,-267002.78,441.14023,456.49805,438.4493
0.0795,251936.34,291153.5,-266599.03,441.14023,451.63733,436.79355
0.08,251857.17,291495.3,-265795.16,441.14023,451.63733,436.79355
0.0805,251826.38,291743.7,-265166.47,441.14023,451.63733,436.79355
0.081,251801.69,292074.66,-264171.34,441.14023,451.63733,436.79355
0.0815,251791.6,292226.94,-263526.4,441.14023,451.63733,436.79355
0.082,251766.61,292303.25,-262674.7,441.14023,451.63733,436.79355
0.0825,251735.8,292235.78,-262227.06,437.12778,451.63733,436.79355
0.083,251656.31,291949.75,-261778.17,437.12778,451.63733,436.79355
0.0835,251575.2,291647.97,-261632.67,437.12778,451.63733,436.79355
0.084,251420.22,291077.62,-261620.1,437.12778,451.63733,436.79355
0.0845,251303.05,290652.34,-261718.53,437.12778,451.63733,436.79355
0.085,251124.38,290014.66,-261954.0,437.12778,451.63733,436.79355
0.0855,251009.83,289633.06,-262121.33,437.12778,451.63733,436.79355
0.086,250856.25,289186.66,-262311.72,437.12778,451.63733,436.79355
0.0865,250771.48,289002.56,-262357.22,437.12778,451.63733,436.79355
0.087,250677.61,288921.3,-262252.28,437.12778,451.63733,436.79355
0.0875,250640.1,288990.66,-262055.61,437.12778,451.63733,436.79355
0.088,250620.77,289241.47,-261574.66,437.12778,451.63733,436.79355
0.0885,250628.92,289472.6,-261152.89,437.12778,451.63733,436.79355
0.089,250661.86,289839.62,-260431.48,437.12778,451.63733,436.79355
0.0895,250688.81,290052.53,-259938.58,437.12778,451.63733,436.79355
0.09,250718.22,290260.16,-259268.45,437.12778,451.63733,436.79355
0.0905,250719.55,290301.88,-258912.23,437.12778,451.63733,436.79355
0.091,250681.55,290199.8,-258567.48,437.12778,451.63733,436.79355
0.0915,250625.36,290021.25,-258478.88,437.12778,451.63733,436.79355
0.092,250496.14,289612.4,-258550.52,437.12778,451.63733,436.79355
0.0925,250384.28,289271.9,-258711.44,437.12778,451.63733,436.79355
0.093,250188.38,288717.38,-259055.31,437.12778,451.63733,436.79355
0.0935,251071.28,289391.72,-259950.11,437.12778,451.63733,436.79355
0.094,250792.9,288905.12,-260528.05,437.12778,451.63733,436.79355
0.0945,250665.4,288704.4,-261020.45,437.12778,451.63733,436.79355
0.095,250552.33,288574.5,-261825.19,437.12778,451.63733,436.79355
0.0955,250540.88,288569.97,-262323.12,437.12778,451.63733,436.79355
0.096,250627.94,288589.1,-262854.12,437.12778,451.63733,436.79355
0.0965,250734.31,288568.28,-263000.88,437.12778,451.63733,436.79355
0.097,250900.52,288454.8,-262896.88,437.12778,449.2919,435.50522
0.0975,250983.77,288337.0,-262660.72,437.12778,449.2919,435.50522
0.098,251061.36,288123.38,-262200.84,437.12778,449.2919,435.50522
0.0985,251100.7,287957.3,-261909.55,437.12778,449.2919,435.50522
0.099,251172.06,287635.84,-261608.14,437.12778,449.2919,435.50522
0.0995,251227.67,287342.7,-261535.58,435.9989,449.2919,435.50522
0.1,251293.34,286765.97,-261644.9,435.9989,449.2919,435.50522
0.1005,251311.11,286301.66,-261861.52,435.9989,449.2919,435.50522
0.101,251296.72,285535.25,-262365.2,435.9989,449.2919,435.50522
0.1015,251272.6,285013.66,-262784.94,435.9989,449.2919,435.50522
0.102,251235.05,284277.0,-263448.03,435.9989,449.2919,435.50522
0.1025,251209.03,283851.47,-263852.47,435.9989,449.2919,435.50522
0.103,251162.31,283368.75,-264311.62,435.9989,449.2919,435.50522
0.1035,251132.23,283171.22,-264483.2,435.9989,449.2919,435.50522
0.104,251115.86,283060.12,-264515.34,435.9989,449.2919,435.50522
0.1045,251138.4,283089.44,-264394.56,435.9989,449.2919,435.50522
0.105,251219.84,283232.9,-264045.84,435.9989,449.2919,435.50522
0.1055,251289.89,283362.28,-263734.9,435.9989,449.2919,435.50522
0.106,251386.08,283547.4,-263225.94,435.9989,449.2919,435.50522
0.1065,251432.1,283629.78,-262902.03,435.9989,449.2919,435.50522
0.107,251463.48,283626.7,-262519.28,435.9989,449.2919,435.50522
0.1075,251457.02,283518.4,-262370.66,435.9989,449.2919,435.50522
0.108,251399.05,283182.66,-262345.34,435.9989,449.2919,435.50522
0.1085,251326.08,282854.16,-262463.47,435.9989,449.2919,435.50522
0.109,251165.39,282249.06,-262812.7,435.9989,449.2919,435.50522
0.1095,251030.0,281804.78,-263130.5,435.9989,449.2919,435.50522
0.11,250803.44,281143.56,-263648.88,435.9989,449.2919,435.50522
0.1105,250650.67,280746.4,-263966.97,435.9989,449.2919,435.50522
0.111,250434.2,280272.34,-264318.84,435.9989,449.2919,435.50522
0.1115,250304.64,280066.38,-264430.4,435.9989,449.2919,435.50522
0.112,250139.2,279939.75,-264373.6,435.9989,449.2919,435.50522
0.1125,250050.58,279971.72,-264180.7,435.9989,449.2919,435.50522
0.113,249952.84,280149.47,-263673.88,435.9989,449.2919,435.50522
0.1135,249909.72,280320.22,-263216.12,435.9989,449.2919,435.50522
0.114,249870.7,280579.53,-262423.3,435.9989,449.28876,437.09598
0.1145,249855.55,280714.9,-261876.08,435.9989,449.28876,437.09598
0.115,249832.97,280799.16,-261123.08,435.9989,449.28876,437.09598
0.1155,249810.77,280749.22,-260712.62,435.9989,449.28876,437.09598
0.116,249752.84,280491.9,-260292.45,435.9989,449.28876,437.09598
0.1165,249691.4,280198.84,-260160.53,435.9989,449.28876,437.09598
0.117,249557.86,279607.47,-260183.78,436.43015,449.28876,437.09598
0.1175,249445.03,279143.34,-260327.83,436.43015,449.28876,437.09598
0.118,249257.58,278414.44,-260673.94,436.43015,449.28876,437.09598
0.1185,249130.86,277950.9,-260946.42,436.43015,449.28876,437.09598
0.119,248954.36,277353.38,-261329.98,436.43015,449.28876,437.09598
0.1195,248851.55,277049.9,-261522.38,436.43015,449.28876,437.09598
0.12,248727.55,276770.72,-261660.8,436.43015,449.28876,437.09598
0.1205,248670.5,276707.78,-261634.53,436.43015,449.28876,437.09598
0.121,248626.56,276778.5,-261411.14,436.43015,449.28876,437.09598
0.1215,248622.08,276911.72,-261150.88,436.43015,449.28876,437.09598
0.122,248638.45,277178.25,-260634.1,436.43015,449.28876,437.09598
0.1225,248657.45,277359.12,-260246.55,436.43015,449.28876,437.09598
0.123,248683.83,277561.88,-259679.7,436.43015,449.28876,437.09598
0.1235,248692.88,277616.47,-259359.77,436.43015,449.28876,437.09598
0.124,248676.03,277535.12,-259038.83,436.43015,449.28876,437.09598
0.1245,248634.95,277367.78,-258958.67,436.43015,449.28876,437.09598
0.125,248518.55,276964.9,-259052.28,436.43015,449.28876,437.09598
0.1255,248405.48,276616.16,-259245.08,436.43015,449.28876,437.09598
0.126,248201.06,276024.84,-259672.73,436.43015,449.28876,437.09598
0.1265,248050.27,275617.4,-260003.52,436.43015,449.28876,437.09598
0.127,247820.75,275046.44,-260482.89,436.43015,449.28876,437.09598
0.1275,247674.0,274730.9,-260744.42,436.43015,449.28876,437.09598
0.128,247474.83,274405.8,-260983.94,436.43015,449.28876,437.09598
0.1285,247363.72,274304.66,-261011.08,436.43015,449.28876,437.09598
0.129,247237.11,274318.4,-260826.42,436.43015,449.28876,437.09598
0.1295,247179.66,274421.03,-260557.52,436.43015,449.28876,437.09598
0.13,247130.0,274657.88,-259970.25,436.43015,449.28876,437.09598
0.1305,247114.47,274832.6,-259493.58,436.43015,449.28876,437.09598
0.131,247108.14,275048.28,-258735.1,436.43015,449.28876,437.09598
0.1315,247108.98,275123.62,-258250.3,436.43015,445.7614,435.376
0.132,247104.02,275077.25,-257640.53,436.43015,445.7614,435.376
0.1325,247084.94,274924.34,-257352.83,436.43015,445.7614,435.376
0.133,247018.19,274514.1,-257134.92,436.43015,445.7614,435.376
0.1335,246944.84,274133.6,-257134.5,436.43015,445.7614,435.376
0.134,246799.06,273455.3,-257325.45,433.745,445.7614,435.376
0.1345,246685.36,272966.66,-257550.42,433.745,445.7614,435.376
0.135,246510.45,272245.88,-257962.0,433.745,445.7614,435.376
0.1355,246398.23,271815.84,-258240.86,433.745,445.7614,435.376
0.136,246249.75,271305.22,-258590.4,433.745,445.7614,435.376
0.1365,246170.62,271080.62,-258739.8,433.745,445.7614,435.376
0.137,246090.03,270930.88,-258795.17,433.745,445.7614,435.376
0.1375,246064.53,270947.62,-258709.44,433.745,445.7614,435.376
0.138,246065.88,271109.53,-258404.86,433.745,445.7614,435.376
0.1385,246086.3,271276.38,-258104.44,433.745,445.7614,435.376
0.139,246132.22,271549.03,-257572.7,433.745,445.7614,435.376
0.1395,246164.06,271702.5,-257207.02,433.745,445.7614,435.376
0.14,246194.97,271829.1,-256727.94,433.745,445.7614,435.376
0.1405,246194.83,271820.62,-256497.7,433.745,445.7614,435.376
0.141,246152.2,271648.34,-256339.44,433.745,445.7614,435.376
0.1415,246093.19,271422.84,-256373.38,433.745,445.7614,435.376
0.142,245963.19,270951.3,-256624.78,433.745,445.7614,435.376
0.1425,245851.86,270573.94,-256900.28,433.745,445.7614,435.376
0.143,245658.95,269974.25,-257405.56,433.745,445.7614,435.376
0.1435,246060.78,270187.16,-258407.14,433.745,445.7614,435.376
0.144,245829.81,269671.75,-258992.47,433.745,445.7614,435.376
0.1445,245716.72,269439.9,-259412.77,433.745,445.7614,435.376
0.145,245607.86,269273.94,-260011.62,433.745,445.7614,435.376
0.1455,245587.14,269266.2,-260331.9,433.745,445.7614,435.376
0.146,245642.27,269334.7,-260592.72,433.745,445.7614,435.376
0.1465,245723.75,269389.03,-260587.17,433.745,445.7614,435.376
0.147,245863.27,269434.06,-260319.95,433.745,445.7614,435.376
0.1475,245942.77,269434.3,-260015.39,433.745,445.7614,435.376
0.148,246031.77,269380.9,-259493.94,433.745,445.7614,435.376
