Time,Modbus1.Q_level,Modbus2.Q_level,Modbus3.Q_level,measurement1.Three-phase Meter1.VLn_RMS,measurement2.Three-phase Meter2.VLn_RMS,measurement3.Three-phase Meter3.VLn_RMS
0.0,1153284.6,754951.5,-302485.84,1212.7147,1240.9221,1210.338
0.0005,1147836.1,746631.75,-305398.97,1212.7147,1240.9221,1210.338
0.001,1144112.1,741726.44,-306737.53,1212.7147,1240.9221,1210.338
0.0015,1138434.4,735374.5,-308181.0,1212.7147,1240.9221,1210.338
0.002,1134572.1,731800.75,-308950.66,1212.7147,1240.9221,1210.338
0.0025,1128629.1,727268.8,-310042.94,1212.7147,1240.9221,1210.338
0.003,1124587.4,724607.9,-310812.88,1212.7147,1240.9221,1210.338
0.0035,1118498.5,720756.56,-312125.78,1212.7147,1240.9221,1210.338
0.004,1114437.5,718092.8,-313144.9,1212.7147,1240.9221,1210.338
0.0045,1108233.1,713832.3,-314908.25,1212.7147,1240.9221,1210.338
0.005,1103912.1,710841.25,-316213.62,1212.7147,1240.9221,1210.338
0.0055,1096977.0,706259.3,-318250.1,1212.7147,1240.9221,1210.338
0.006,1092004.6,703229.7,-319568.5,1212.7147,1240.9221,1210.338
0.0065,1084005.8,698896.44,-321350.0,1212.7147,1240.9221,1210.338
0.007,1078339.6,696290.7,-322366.4,1212.7147,1240.9221,1210.338
0.0075,1069387.8,693099.2,-323637.5,1212.7147,1240.9221,1210.338
0.008,1063146.2,691614.94,-324351.1,1212.7147,1240.9221,1210.338
0.0085,1053446.0,690536.44,-325309.06,1142.7584,1240.9221,1123.1066
0.009,1046825.1,690595.56,-325923.47,1142.7584,1240.9221,1123.1066
0.0095,1036784.6,691726.3,-326883.4,1142.7584,1240.9221,1123.1066
0.01,1030070.3,693046.2,-327583.88,1142.7584,1240.9221,1123.1066
0.0105,1020012.25,695596.25,-328777.66,1142.7584,1240.9221,1123.1066
0.011,1013345.75,697488.6,-329700.5,1142.7584,1240.9221,1123.1066
0.0115,1003466.75,700279.75,-331330.72,1142.7584,1240.9221,1123.1066
0.012,996988.9,701930.75,-332592.1,1142.7584,1240.9221,1123.1066
0.0125,987455.8,703861.6,-334710.88,1142.7584,1240.9221,1123.1066
0.013,981204.9,704705.6,-336223.47,1142.7584,1240.9221,1123.1066
0.0135,971929.56,705298.06,-338516.25,1142.7584,1240.9221,1123.1066
0.014,965779.9,705286.4,-339984.75,1142.7584,1240.9221,1123.1066
0.0145,956614.06,704783.3,-341992.25,1142.7584,1240.9221,1123.1066
0.015,950567.3,704227.5,-343163.9,1142.7584,1240.9221,1123.1066
0.0155,941622.8,703274.75,-344639.22,1142.7584,1240.9221,1123.1066
0.016,935750.3,702689.9,-345425.4,1142.7584,1240.9221,1123.1066
0.0165,927076.9,702061.0,-346308.7,1142.7584,1240.9221,1123.1066
0.017,921402.44,701858.56,-346716.84,1142.7584,1135.8811,1123.1066
0.0175,913108.3,701872.4,-347127.53,1142.7584,1135.8811,1123.1066
0.018,907753.3,702043.25,-347325.7,1142.7584,1135.8811,1123.1066
0.0185,900012.44,702397.3,-347626.44,1142.7584,1135.8811,1123.1066
0.019,895060.3,702592.3,-347899.38,1142.7584,1135.8811,1123.1066
0.0195,887936.5,702629.7,-348514.6,1142.7584,1135.8811,1123.1066
0.02,883380.5,702382.0,-349093.1,1142.7584,1135.8811,1123.1066
0.0205,876730.8,701472.9,-350225.5,1142.7584,1135.8811,1123.1066
0.021,872387.9,700484.5,-351142.84,1142.7584,1135.8811,1123.1066
0.0215,865825.44,698467.25,-352709.0,1142.7584,1135.8811,1123.1066
0.022,861401.8,696818.8,-353839.78,1142.7584,1135.8811,1123.1066
0.0225,854613.25,694061.9,-355598.72,1142.7584,1135.8811,1123.1066
0.023,849960.1,692169.8,-356781.5,1142.7584,1135.8811,1123.1066
0.0235,842712.44,689514.75,-358528.47,1142.7584,1135.8811,1123.1066
0.024,837712.1,688014.44,-359658.97,1142.7584,1135.8811,1123.1066
0.0245,829977.7,686368.56,-361296.44,1142.7584,1135.8811,1123.1066
0.025,824700.94,685750.56,-362362.66,1142.7584,1135.8811,1123.1066
0.0255,816684.44,685575.0,-363971.2,1038.4934,1135.8811,1024.5265
0.026,811323.6,685921.9,-365087.56,1038.4934,1135.8811,1024.5265
0.0265,803352.5,686982.8,-366887.5,1038.4934,1135.8811,1024.5265
0.027,798138.56,687915.5,-368198.34,1038.4934,1135.8811,1024.5265
0.0275,790535.06,689383.6,-370360.34,1038.4934,1135.8811,1024.5265
0.028,785635.94,690254.75,-371939.44,1038.4934,1135.8811,1024.5265
0.0285,778552.3,691182.94,-374509.7,1038.4934,1135.8811,1024.5265
0.029,773994.9,691458.1,-376340.8,1038.4934,1135.8811,1024.5265
0.0295,767364.8,691268.3,-379205.22,1038.4934,1135.8811,1024.5265
0.03,763056.56,690726.06,-381145.06,1038.4934,1135.8811,1024.5265
0.0305,756736.9,689336.0,-384004.88,1038.4934,1135.8811,1024.5265
0.031,752589.9,688084.0,-385826.28,1038.4934,1135.8811,1024.5265
0.0315,746433.1,685884.4,-388367.53,1038.4934,1135.8811,1024.5265
0.032,742373.3,684320.25,-389917.34,1038.4934,1135.8811,1024.5265
0.0325,736343.94,682019.56,-392023.0,1038.4934,1135.8811,1024.5265
0.033,732384.0,680605.4,-393290.94,1038.4934,1135.8811,1024.5265
0.0335,726561.1,678754.25,-395019.94,1038.4934,1135.8811,1024.5265
0.034,722784.94,677717.3,-396085.53,1038.4934,1021.80615,1024.5265
0.0345,717332.94,676410.7,-397625.53,1038.4934,1021.80615,1024.5265
0.035,713873.56,675642.9,-398663.78,1038.4934,1021.80615,1024.5265
0.0355,708992.44,674483.94,-400324.8,1038.4934,1021.80615,1024.5265
0.036,705969.2,673599.8,-401540.47,1038.4934,1021.80615,1024.5265
0.0365,701766.7,671939.0,-403566.7,1038.4934,1021.80615,1024.5265
0.037,699155.44,670535.4,-405056.8,1038.4934,1021.80615,1024.5265
0.0375,695443.5,667922.0,-407474.94,1038.4934,1021.80615,1024.5265
0.038,693045.0,665848.2,-409183.5,1038.4934,1021.80615,1024.5265
0.0385,689458.7,662318.4,-411845.12,1038.4934,1021.80615,1024.5265
0.039,687024.06,659757.44,-413657.06,1038.4934,1021.80615,1024.5265
0.0395,683263.3,655782.3,-416386.38,1038.4934,1021.80615,1024.5265
0.04,680622.0,653161.44,-418195.84,1038.4934,1021.80615,1024.5265
0.0405,676441.56,649483.7,-420886.0,1038.4934,1021.80615,1024.5265
0.041,674553.94,647329.8,-422184.75,1038.4934,1021.80615,1024.5265
0.0415,666657.44,639450.1,-426905.12,1038.4934,1021.80615,1024.5265
0.042,660650.06,634070.8,-429664.66,1038.4934,1021.80615,1024.5265
0.0425,651476.75,626773.5,-432320.4,950.1314,1021.80615,938.2125
0.043,644169.4,620371.8,-432643.12,950.1314,1021.80615,938.2125
0.0435,631230.06,602361.56,-428491.6,950.1314,1021.80615,938.2125
0.044,622135.44,582789.1,-421016.8,950.1314,1021.80615,938.2125
0.0445,606647.94,545531.3,-401817.1,950.1314,1021.80615,938.2125
0.045,592615.75,520880.97,-384925.34,950.1314,1021.80615,938.2125
0.0455,563020.06,493108.06,-357885.5,950.1314,1021.80615,938.2125
0.046,538819.44,482436.0,-341448.06,950.1314,1021.80615,938.2125
0.0465,502130.7,474666.72,-321854.97,950.1314,1021.80615,938.2125
0.047,480897.5,471557.97,-312123.22,950.1314,1021.80615,938.2125
0.0475,455564.38,466357.9,-300581.94,950.1314,1021.80615,938.2125
0.048,441748.5,462265.94,-293643.84,950.1314,1021.80615,938.2125
0.0485,422850.1,455976.5,-283175.6,950.1314,1021.80615,938.2125
0.049,410860.78,451834.47,-276089.38,950.1314,1021.80615,938.2125
0.0495,393959.56,445404.78,-265500.06,950.1314,1021.80615,938.2125
0.05,383202.62,441060.1,-258388.17,950.1314,1021.80615,938.2125
0.0505,366374.34,435357.9,-247165.08,950.1314,1021.80615,938.2125
0.051,353952.12,432575.3,-239153.02,950.1314,834.45166,938.2125
0.0515,334000.84,429706.56,-226768.25,950.1314,834.45166,938.2125
0.052,321079.88,428017.9,-218881.11,950.1314,834.45166,938.2125
0.0525,304299.97,424950.84,-208657.05,950.1314,834.45166,938.2125
0.053,295027.03,422666.8,-203175.33,950.1314,834.45166,938.2125
0.0535,282539.12,419923.7,-196630.38,950.1314,834.45166,938.2125
0.054,274126.0,419078.8,-192935.6,950.1314,834.45166,938.2125
0.0545,260681.9,419281.12,-187729.16,950.1314,834.45166,938.2125
0.055,251597.95,419930.3,-184334.56,950.1314,834.45166,938.2125
0.0555,238904.81,420856.62,-179473.83,950.1314,834.45166,938.2125
0.056,231414.47,421266.53,-176524.38,950.1314,834.45166,938.2125
0.0565,221528.95,421743.88,-172662.05,950.1314,834.45166,938.2125
0.057,215626.5,422130.72,-170442.6,950.1314,834.45166,938.2125
0.0575,207732.94,422924.4,-167558.77,950.1314,834.45166,938.2125
0.058,203232.94,423608.9,-165913.22,950.1314,834.45166,938.2125
0.0585,197797.75,424954.8,-163904.02,950.1314,834.45166,938.2125
0.059,195018.31,426137.6,-162910.78,706.2384,834.45166,746.77075
0.0595,191976.44,428285.75,-161951.39,706.2384,834.45166,746.77075
0.06,190708.27,429751.62,-161622.1,706.2384,834.45166,746.77075
0.0605,190166.94,431458.78,-161456.6,706.2384,834.45166,746.77075
0.061,190839.02,432026.8,-161483.19,706.2384,834.45166,746.77075
0.0615,193347.84,431956.78,-161639.58,706.2384,834.45166,746.77075
0.062,195822.53,431424.06,-161809.17,706.2384,834.45166,746.77075
0.0625,200309.02,430143.7,-162180.83,706.2384,834.45166,746.77075
0.063,203639.44,429020.1,-162518.98,706.2384,834.45166,746.77075
0.0635,209014.28,426856.06,-163150.19,706.2384,834.45166,746.77075
0.064,212814.28,425046.25,-163629.38,706.2384,834.45166,746.77075
0.0645,218708.52,421819.75,-164391.73,706.2384,834.45166,746.77075
0.065,222650.2,419420.84,-164915.86,706.2384,834.45166,746.77075
0.0655,228377.33,415631.03,-165736.39,706.2384,834.45166,746.77075
0.066,232029.52,413052.62,-166324.56,706.2384,834.45166,746.77075
0.0665,237242.0,409177.78,-167301.75,706.2384,834.45166,746.77075
0.067,240541.17,406619.94,-168030.52,706.2384,834.45166,746.77075
0.0675,245198.88,402873.34,-169254.84,706.2384,699.4515,746.77075
0.068,248100.45,400445.34,-170174.38,706.2384,699.4515,746.77075
0.0685,252186.2,396856.56,-171755.53,706.2384,699.4515,746.77075
0.069,254792.5,394438.25,-172976.73,706.2384,699.4515,746.77075
0.0695,258586.14,390679.25,-175099.88,706.2384,699.4515,746.77075
0.07,261058.62,388065.53,-176716.1,706.2384,699.4515,746.77075
0.0705,264644.94,384016.6,-179418.44,706.2384,699.4515,746.77075
0.071,266887.6,381266.28,-181383.97,706.2384,699.4515,746.77075
0.0715,270008.03,377105.97,-184548.36,706.2384,699.4515,746.77075
0.072,271954.56,374324.28,-186790.8,706.2384,699.4515,746.77075
0.0725,274740.34,370168.25,-190340.61,706.2384,699.4515,746.77075
0.073,276555.4,367443.44,-192825.2,706.2384,699.4515,746.77075
0.0735,279298.3,363493.22,-196716.73,706.2384,699.4515,746.77075
0.074,281199.72,360983.72,-199411.16,706.2384,699.4515,746.77075
0.0745,284280.44,357423.66,-203586.2,706.2384,699.4515,746.77075
0.075,286562.3,355169.8,-206447.95,706.2384,699.4515,746.77075
0.0755,290460.28,351915.06,-210842.69,706.2384,699.4515,746.77075
0.076,293438.94,349781.06,-213831.5,706.2384,699.4515,751.02954
0.0765,298552.4,346528.34,-218383.95,725.45056,699.4515,751.02954
0.077,302415.28,344257.75,-221451.9,725.45056,699.4515,751.02954
0.0775,308898.8,340572.34,-226076.22,725.45056,699.4515,751.02954
0.078,313662.1,337860.56,-229156.3,725.45056,699.4515,751.02954
0.0785,321386.94,333333.47,-233736.19,725.45056,699.4515,751.02954
0.079,326846.1,329989.97,-236739.23,725.45056,699.4515,751.02954
0.0795,335335.9,324493.7,-241125.9,725.45056,699.4515,751.02954
0.08,341095.2,320529.47,-243946.84,725.45056,699.4515,751.02954
0.0805,349735.75,314186.25,-247985.36,725.45056,699.4515,751.02954
0.081,355394.06,309737.9,-250533.5,725.45056,699.4515,751.02954
0.0815,363634.6,302832.25,-254122.95,725.45056,699.4515,751.02954
0.082,368884.3,298133.88,-256358.14,725.45056,699.4515,751.02954
0.0825,376331.44,291049.44,-259484.88,725.45056,699.4515,751.02954
0.083,380993.6,286352.78,-261435.9,725.45056,699.4515,751.02954
0.0835,387551.62,279405.3,-264206.5,725.45056,699.4515,751.02954
0.084,391649.4,274853.03,-265977.3,725.45056,699.4515,751.02954
0.0845,397409.88,268147.12,-268565.62,725.45056,699.4515,751.02954
0.085,401010.34,263750.6,-270271.2,725.45056,699.4515,751.02954
0.0855,406077.9,257238.77,-272841.12,725.45056,728.7261,751.02954
0.086,409254.5,252933.86,-274583.4,725.45056,728.7261,751.02954
0.0865,413688.03,246497.67,-277268.94,725.45056,728.7261,751.02954
0.087,416422.2,242210.1,-279115.97,725.45056,728.7261,751.02954
0.0875,420186.34,235785.02,-281967.84,725.45056,728.7261,751.02954
0.088,422426.84,231515.17,-283911.53,725.45056,728.7261,751.02954
0.0885,425378.16,225157.5,-286864.66,725.45056,728.7261,751.02954
0.089,427071.88,220974.83,-288843.03,725.45056,728.7261,751.02954
0.0895,429226.84,214837.25,-291801.8,725.45056,728.7261,751.02954
0.09,430403.6,210873.0,-293759.6,725.45056,728.7261,751.02954
0.0905,431849.44,205176.19,-296663.03,725.45056,728.7261,751.02954
0.091,429097.22,199704.8,-295669.1,725.45056,728.7261,751.02954
0.0915,425079.22,191500.69,-295730.2,725.45056,728.7261,751.02954
0.092,423318.28,186747.56,-296372.22,725.45056,728.7261,751.02954
0.0925,418545.97,179242.34,-295358.34,725.45056,728.7261,751.02954
0.093,414070.78,174545.27,-293790.1,725.45056,728.7261,751.02954
0.0935,405893.56,169076.03,-291197.84,725.45056,728.7261,751.02954
0.094,399974.6,166803.89,-289962.62,667.1913,728.7261,659.4742
0.0945,391556.8,165078.69,-289501.78,667.1913,728.7261,659.4742
0.095,386859.4,164470.64,-290091.88,667.1913,728.7261,659.4742
0.0955,381621.84,163455.16,-291698.38,667.1913,728.7261,659.4742
0.096,379189.4,162474.44,-292779.7,667.1913,728.7261,659.4742
0.0965,376538.94,160606.78,-293833.16,667.1913,728.7261,659.4742
0.097,375164.06,159193.6,-294040.84,667.1913,728.7261,659.4742
0.0975,373474.16,156820.31,-293694.16,667.1913,728.7261,659.4742
0.098,372589.72,154984.31,-293115.84,667.1913,728.7261,659.4742
0.0985,371488.2,151768.02,-291790.1,667.1913,728.7261,659.4742
0.099,370718.9,149376.02,-290581.75,667.1913,728.7261,659.4742
0.0995,369166.94,145645.42,-288258.16,667.1913,728.7261,659.4742
0.1,367765.16,143190.22,-286410.44,667.1913,728.7261,659.4742
0.1005,365122.84,139680.78,-283356.72,667.1913,728.7261,659.4742
0.101,363052.9,137496.02,-281237.8,667.1913,728.7261,659.4742
0.1015,359498.22,134521.81,-278044.0,667.1913,728.7261,659.4742
0.102,356800.25,132786.12,-275912.78,667.1913,728.7261,659.4742
0.1025,352246.72,130577.2,-272679.06,667.1913,728.7261,659.4742
0.103,348916.34,129331.96,-270489.66,667.1913,585.09424,659.4742
0.1035,343616.4,127693.47,-267188.84,667.1913,585.09424,659.4742
0.104,339785.1,126588.76,-264951.9,667.1913,585.09424,659.4742
0.1045,331525.16,123292.305,-260502.6,667.1913,585.09424,659.4742
0.105,323263.0,118759.24,-255717.9,667.1913,585.09424,659.4742
0.1055,306254.62,107606.31,-244078.33,667.1913,585.09424,659.4742
0.106,291642.75,98280.92,-233007.55,667.1913,585.09424,659.4742
0.1065,264597.97,84961.91,-212626.48,667.1913,585.09424,659.4742
0.107,243646.89,78155.49,-197951.08,667.1913,585.09424,659.4742
0.1075,210219.44,71370.98,-176720.66,667.1913,585.09424,659.4742
0.108,188296.17,68231.71,-163875.75,667.1913,585.09424,659.4742
0.1085,157896.89,64071.51,-146645.97,667.1913,585.09424,659.4742
0.109,139623.97,61378.184,-136159.61,667.1913,585.09424,659.4742
0.1095,115149.93,57646.023,-121433.27,667.1913,585.09424,659.4742
0.11,100819.375,55396.562,-112237.56,667.1913,585.09424,659.4742
0.1105,82389.35,52071.332,-99431.734,667.1913,585.09424,659.4742
0.111,71844.77,49743.7,-91416.6,667.1913,585.09424,379.03815
0.1115,57308.188,46286.26,-79542.42,385.22134,585.09424,379.03815
0.112,47600.277,44268.7,-71313.03,385.22134,585.09424,379.03815
0.1125,32356.094,41858.734,-58216.723,385.22134,585.09424,379.03815
0.113,22020.262,40498.08,-49180.363,385.22134,585.09424,379.03815
0.1135,7233.962,38392.715,-35881.027,385.22134,585.09424,379.03815
0.114,-1817.6763,36858.4,-27564.986,385.22134,585.09424,379.03815
0.1145,-14412.817,34616.496,-16151.152,385.22134,585.09424,379.03815
0.115,-22519.799,33385.17,-9152.859,385.22134,585.09424,379.03815
0.1155,-34581.586,32091.213,744.42346,385.22134,585.09424,379.03815
0.116,-42428.285,31526.254,7061.3423,385.22134,585.09424,379.03815
0.1165,-53435.355,30910.873,16142.267,385.22134,585.09424,379.03815
0.117,-60086.547,30586.43,21894.64,385.22134,585.09424,379.03815
0.1175,-69089.09,30208.797,30062.285,385.22134,585.09424,379.03815
0.118,-74568.02,30011.26,35250.516,385.22134,585.09424,379.03815
0.1185,-82102.12,29700.797,42764.367,385.22134,585.09424,379.03815
0.119,-86631.27,29442.113,47623.906,385.22134,585.09424,379.03815
0.1195,-92574.23,29038.686,54623.418,385.22134,254.31114,379.03815
0.12,-95993.8,28868.799,59014.49,385.22134,254.31114,379.03815
0.1205,-100467.62,28921.95,65061.4,385.22134,254.31114,379.03815
0.121,-103103.92,29159.56,68701.086,385.22134,254.31114,379.03815
0.1215,-106557.234,29668.77,73597.02,385.22134,254.31114,379.03815
0.122,-108466.98,30010.312,76520.88,385.22134,254.31114,379.03815
0.1225,-110637.43,30479.17,80446.26,385.22134,254.31114,379.03815
0.123,-111615.445,30812.645,82764.74,385.22134,254.31114,379.03815
0.1235,-112440.97,31453.754,85789.805,385.22134,254.31114,379.03815
0.124,-112606.23,31999.227,87510.38,385.22134,254.31114,379.03815
0.1245,-112315.13,32942.332,89689.28,385.22134,254.31114,379.03815
0.125,-111757.32,33605.477,90920.95,385.22134,254.31114,379.03815
0.1255,-110427.01,34597.04,92524.79,385.22134,254.31114,379.03815
0.126,-109234.66,35245.098,93478.93,385.22134,254.31114,379.03815
0.1265,-107050.81,36181.066,94780.93,385.22134,254.31114,379.03815
0.127,-105361.89,36760.152,95570.82,385.22134,254.31114,379.03815
0.1275,-102531.89,37514.527,96644.77,276.23523,254.31114,364.5065
0.128,-100496.62,37928.543,97295.23,276.23523,254.31114,364.5065
0.1285,-97341.86,38432.727,98196.19,276.23523,254.31114,364.5065
0.129,-95241.08,38710.082,98757.086,276.23523,254.31114,364.5065
0.1295,-92166.92,39058.254,99534.76,276.23523,254.31114,364.5065
0.13,-90177.82,39240.83,99994.336,276.23523,254.31114,364.5065
0.1305,-87243.68,39428.09,100557.484,276.23523,254.31114,364.5065
0.131,-85304.375,39497.527,100832.14,276.23523,254.31114,364.5065
0.1315,-82384.49,39546.51,101084.0,276.23523,254.31114,364.5065
0.132,-80415.836,39568.645,101150.625,276.23523,254.31114,364.5065
0.1325,-77374.86,39613.023,101113.63,276.23523,254.31114,364.5065
0.133,-75234.82,39658.97,101003.4,276.23523,254.31114,364.5065
0.1335,-71751.516,39749.945,100710.45,276.23523,254.31114,364.5065
0.134,-69190.24,39824.81,100426.28,276.23523,254.31114,364.5065
0.1345,-64921.14,39954.316,99863.04,276.23523,254.31114,364.5065
0.135,-61769.207,40050.36,99394.336,276.23523,254.31114,364.5065
0.1355,-56557.168,40197.52,98544.836,276.23523,254.31114,364.5065
0.136,-52760.08,40293.965,97871.79,276.23523,292.26276,364.5065
0.1365,-46581.523,40434.895,96679.49,276.23523,292.26276,364.5065
0.137,-42153.426,40531.355,95748.27,276.23523,292.26276,364.5065
0.1375,-35086.523,40691.48,94121.09,276.23523,292.26276,364.5065
0.138,-30114.574,40814.98,92869.62,276.23523,292.26276,364.5065
0.1385,-22304.428,41029.797,90727.14,276.23523,292.26276,364.5065
0.139,-16875.98,41196.492,89115.49,276.23523,292.26276,364.5065
0.1395,-8399.329,41491.953,86421.734,276.23523,292.26276,364.5065
0.14,-2520.5686,41728.156,84443.67,276.23523,292.26276,364.5065
0.1405,6622.384,42146.47,81221.97,276.23523,292.26276,364.5065
0.141,13955.68,43468.21,78102.62,276.23523,292.26276,364.5065
0.1415,24538.8,44123.664,72833.555,276.23523,292.26276,364.5065
0.142,30736.27,43937.617,69320.56,276.23523,292.26276,364.5065
0.1425,39535.164,43663.375,63671.754,276.23523,292.26276,364.5065
0.143,45089.42,43463.535,59801.72,276.23523,292.26276,364.5065
0.1435,53139.36,43361.1,53820.29,276.23523,292.26276,364.5065
0.144,58491.65,43544.92,49556.145,276.23523,292.26276,429.7668
0.1445,66886.43,44158.297,42413.13,358.3676,292.26276,429.7668
0.145,72943.32,44648.938,37052.504,358.3676,292.26276,429.7668
0.1455,82924.52,45295.15,28215.422,358.3676,292.26276,429.7668
0.146,90169.53,45656.914,21974.973,358.3676,292.26276,429.7668
0.1465,101743.72,46240.95,12430.469,358.3676,292.26276,429.7668
0.147,109830.805,46729.38,6064.223,358.3676,292.26276,429.7668
0.1475,122472.93,47550.28,-3470.4702,358.3676,292.26276,429.7668
0.148,131276.48,48019.49,-9866.506,358.3676,292.26276,429.7668
0.1485,145067.86,48353.17,-19569.207,358.3676,292.26276,429.7668
