Time,Modbus1.Q_level_1,Modbus1.Q_level_2,Modbus1.Q_level_3,Modbus1.Voltage_diff_1,Modbus1.Voltage_diff_2,Modbus1.Voltage_diff_3,measurement1.Three-phase Meter1.VLn_RMS,measurement2.Three-phase Meter2.VLn_RMS,measurement3.Three-phase Meter3.VLn_RMS
0.0,306167.3,-67547.39,-216226.69,-670.3476,-900.01447,-858.7309,423.8233,412.79932,414.7809
0.0005,306803.38,-67646.57,-216327.95,-670.3476,-900.01447,-858.7309,423.8233,412.79932,414.7809
0.001,307755.75,-67789.016,-216476.72,-670.3476,-900.01447,-858.7309,423.8233,412.79932,414.7809
0.0015,308349.66,-67877.89,-216581.81,-670.3476,-900.01447,-858.7309,423.8233,412.79932,414.7809
0.002,309131.6,-68002.08,-216766.66,-670.3476,-900.01447,-858.7309,423.8233,412.79932,414.7809
0.0025,309568.6,-68082.49,-216917.33,-670.3476,-900.01447,-858.7309,423.8233,412.79932,414.7809
0.003,310086.53,-68206.35,-217187.81,-670.3476,-900.01447,-858.7309,423.8233,412.79932,414.7809
0.0035,310333.78,-68290.22,-217390.53,-670.3476,-900.01447,-858.7309,423.8233,412.79932,414.7809
0.004,310559.8,-68404.3,-217704.75,-670.3476,-900.01447,-858.7309,423.8233,412.79932,414.7809
0.0045,310615.8,-68459.555,-217905.67,-670.3476,-900.01447,-858.7309,423.8233,412.79932,414.7809
0.005,310585.34,-68489.445,-218171.8,-670.3476,-900.01447,-858.7309,423.8233,412.79932,414.7809
0.0055,310507.06,-68466.06,-218315.0,-670.3476,-900.01447,-858.7309,423.8233,412.79932,414.7809
0.006,310347.9,-68363.64,-218462.97,-670.3476,-900.01447,-858.7309,423.8233,412.79932,414.7809
0.0065,310239.12,-68255.31,-218509.94,-670.3476,-900.01447,-858.7309,423.8233,412.79932,414.7809
0.007,310128.03,-68049.836,-218498.89,-670.3476,-900.01447,-858.7309,423.8233,412.79932,414.7809
0.0075,310112.25,-67898.32,-218442.73,-180.80823,-900.01447,-858.7309,447.3212,412.79932,414.7809
0.008,310212.7,-67677.9,-218309.73,-180.80823,-900.01447,-858.7309,447.3212,412.79932,414.7809
0.0085,310375.75,-67552.586,-218209.23,-180.80823,-900.01447,-858.7309,447.3212,412.79932,414.7809
0.009,310766.72,-67421.63,-218079.19,-180.80823,-900.01447,-858.7309,447.3212,412.79932,414.7809
0.0095,311112.6,-67381.74,-218026.94,-180.80823,-900.01447,-858.7309,447.3212,412.79932,414.7809
0.01,311724.7,-67399.195,-218028.77,-180.80823,-900.01447,-858.7309,447.3212,412.79932,414.7809
0.0105,312170.25,-67460.73,-218095.12,-180.80823,-900.01447,-858.7309,447.3212,412.79932,414.7809
0.011,312846.2,-67617.99,-218302.44,-180.80823,-900.01447,-858.7309,447.3212,412.79932,414.7809
0.0115,313280.2,-67757.266,-218512.84,-180.80823,-900.01447,-858.7309,447.3212,412.79932,414.7809
0.012,313881.78,-67998.85,-218919.45,-180.80823,-514.4813,-858.7309,447.3212,431.3049,414.7809
0.0125,314240.38,-68168.59,-219233.58,-180.80823,-514.4813,-858.7309,447.3212,431.3049,414.7809
0.013,314708.22,-68412.84,-219729.12,-180.80823,-514.4813,-858.7309,447.3212,431.3049,414.7809
0.0135,314972.1,-68555.43,-220049.88,-180.80823,-514.4813,-858.7309,447.3212,431.3049,414.7809
0.014,315318.53,-68720.63,-220477.7,-180.80823,-514.4813,-858.7309,447.3212,431.3049,414.7809
0.0145,315528.84,-68793.07,-220712.75,-180.80823,-514.4813,-858.7309,447.3212,431.3049,414.7809
0.015,315847.25,-68846.5,-220979.61,-180.80823,-514.4813,-858.7309,447.3212,431.3049,414.7809
0.0155,316079.88,-68850.89,-221100.53,-180.80823,-514.4813,-858.7309,447.3212,431.3049,414.7809
0.016,316480.0,-68824.96,-221205.25,-180.80823,-514.4813,-858.7309,447.3212,431.3049,414.7809
0.0165,316784.47,-68795.484,-221233.83,-180.80823,-514.4813,-858.7309,447.3212,431.3049,414.7809
0.017,317293.72,-68751.336,-221241.92,-180.80823,-514.4813,-578.0501,447.3212,431.3049,428.2536
0.0175,317662.6,-68732.23,-221243.52,-180.80823,-514.4813,-578.0501,447.3212,431.3049,428.2536
0.018,318221.7,-68729.32,-221270.86,-180.80823,-514.4813,-578.0501,447.3212,431.3049,428.2536
0.0185,318574.94,-68744.3,-221319.55,-180.80823,-514.4813,-578.0501,447.3212,431.3049,428.2536
0.019,319029.38,-68785.23,-221449.06,-180.80823,-514.4813,-578.0501,447.3212,431.3049,428.2536
0.0195,319255.22,-68818.56,-221572.3,-180.80823,-514.4813,-578.0501,447.3212,431.3049,428.2536
0.02,319455.9,-68864.87,-221803.75,-180.80823,-514.4813,-578.0501,447.3212,431.3049,428.2536
0.0205,319492.78,-68885.01,-221980.05,-180.80823,-514.4813,-578.0501,447.3212,431.3049,428.2536
0.021,319412.4,-68884.16,-222255.53,-180.80823,-514.4813,-578.0501,447.3212,431.3049,428.2536
0.0215,319282.44,-68855.016,-222430.69,-180.80823,-514.4813,-578.0501,447.3212,431.3049,428.2536
0.022,319005.6,-68759.11,-222651.94,-180.80823,-514.4813,-578.0501,447.3212,431.3049,428.2536
0.0225,318794.38,-68658.52,-222757.34,-180.80823,-514.4813,-578.0501,447.3212,431.3049,428.2536
0.023,318480.88,-68457.22,-222837.22,-180.80823,-514.4813,-578.0501,447.3212,431.3049,428.2536
0.0235,318302.94,-68296.51,-222836.19,-180.80823,-514.4813,-578.0501,447.3212,431.3049,428.2536
0.024,318127.78,-68033.805,-222762.22,-180.80823,-514.4813,-578.0501,447.3212,431.3049,428.2536
0.0245,318091.22,-67857.164,-222676.44,-180.80823,-514.4813,-578.0501,447.3212,431.3049,428.2536
0.025,318174.8,-67614.055,-222522.58,-31.628647,-514.4813,-578.0501,454.4818,431.3049,428.2536
0.0255,318322.9,-67480.34,-222422.98,-31.628647,-514.4813,-578.0501,454.4818,431.3049,428.2536
0.026,318670.78,-67342.2,-222312.3,-31.628647,-514.4813,-578.0501,454.4818,431.3049,428.2536
0.0265,318970.25,-67299.33,-222283.02,-31.628647,-514.4813,-578.0501,454.4818,431.3049,428.2536
0.027,319484.0,-67312.69,-222331.53,-31.628647,-514.4813,-578.0501,454.4818,431.3049,428.2536
0.0275,319844.1,-67369.92,-222433.98,-31.628647,-514.4813,-578.0501,454.4818,431.3049,428.2536
0.028,320367.2,-67513.8,-222692.92,-31.628647,-514.4813,-578.0501,454.4818,431.3049,428.2536
0.0285,320685.34,-67636.34,-222927.02,-31.628647,-514.4813,-578.0501,454.4818,431.3049,428.2536
0.029,321093.8,-67836.43,-223342.94,-31.628647,-514.4813,-578.0501,454.4818,431.3049,428.2536
0.0295,321313.3,-67966.63,-223642.77,-31.628647,-380.7944,-578.0501,454.4818,437.72186,428.2536
0.03,321576.16,-68135.13,-224087.95,-31.628647,-380.7944,-578.0501,454.4818,437.72186,428.2536
0.0305,321714.16,-68219.016,-224359.12,-31.628647,-380.7944,-578.0501,454.4818,437.72186,428.2536
0.031,321890.78,-68291.26,-224696.64,-31.628647,-380.7944,-578.0501,454.4818,437.72186,428.2536
0.0315,322007.22,-68302.54,-224864.83,-31.628647,-380.7944,-578.0501,454.4818,437.72186,428.2536
0.032,322212.6,-68270.8,-225027.23,-31.628647,-380.7944,-578.0501,454.4818,437.72186,428.2536
0.0325,322385.22,-68225.02,-225080.16,-31.628647,-380.7944,-578.0501,454.4818,437.72186,428.2536
0.033,322710.88,-68136.484,-225093.19,-31.628647,-380.7944,-578.0501,454.4818,437.72186,428.2536
0.0335,322971.5,-68074.836,-225071.58,-31.628647,-380.7944,-578.0501,454.4818,437.72186,428.2536
0.034,323414.8,-67995.97,-225023.31,-31.628647,-380.7944,-578.0501,454.4818,437.72186,428.2536
0.0345,323728.28,-67959.93,-224998.38,-31.628647,-380.7944,-454.70074,454.4818,437.72186,434.17438
0.035,324185.1,-67936.336,-224999.0,-31.628647,-380.7944,-454.70074,454.4818,437.72186,434.17438
0.0355,324457.12,-67939.73,-225035.9,-31.628647,-380.7944,-454.70074,454.4818,437.72186,434.17438
0.036,324775.56,-67964.99,-225154.05,-31.628647,-380.7944,-454.70074,454.4818,437.72186,434.17438
0.0365,324910.84,-67987.984,-225273.0,-31.628647,-380.7944,-454.70074,454.4818,437.72186,434.17438
0.037,324982.38,-68016.86,-225498.48,-31.628647,-380.7944,-454.70074,454.4818,437.72186,434.17438
0.0375,324944.7,-68022.94,-225667.1,-31.628647,-380.7944,-454.70074,454.4818,437.72186,434.17438
0.038,324774.94,-67996.19,-225918.92,-31.628647,-380.7944,-454.70074,454.4818,437.72186,434.17438
0.0385,326110.84,-68351.14,-227054.69,-31.628647,-380.7944,-454.70074,454.4818,437.72186,434.17438
0.039,326107.84,-68370.3,-227520.75,-31.628647,-380.7944,-454.70074,454.4818,437.72186,434.17438
0.0395,326307.53,-68356.83,-227993.98,-31.628647,-380.7944,-454.70074,454.4818,437.72186,434.17438
0.04,326811.72,-68286.64,-228823.94,-31.628647,-380.7944,-454.70074,454.4818,437.72186,434.17438
0.0405,327252.38,-68245.21,-229375.0,-31.628647,-380.7944,-454.70074,454.4818,437.72186,434.17438
0.041,328043.6,-68278.29,-230079.77,-31.628647,-380.7944,-454.70074,454.4818,437.72186,434.17438
0.0415,328624.03,-68384.57,-230427.48,-31.628647,-380.7944,-454.70074,454.4818,437.72186,434.17438
0.042,329487.8,-68627.7,-230755.2,0.0,-380.7944,-454.70074,462.13077,437.72186,434.17438
0.0425,330012.22,-68799.195,-230871.06,0.0,-380.7944,-454.70074,462.13077,437.72186,434.17438
0.043,330711.1,-69023.57,-230975.73,0.0,-380.7944,-454.70074,462.13077,437.72186,434.17438
0.0435,331150.94,-69160.7,-231056.81,0.0,-380.7944,-454.70074,462.13077,437.72186,434.17438
0.044,331850.16,-69401.24,-231277.94,0.0,-380.7944,-454.70074,462.13077,437.72186,434.17438
0.0445,332374.4,-69608.64,-231519.28,0.0,-380.7944,-454.70074,462.13077,437.72186,434.17438
0.045,333218.47,-69985.91,-232025.36,0.0,-380.7944,-454.70074,462.13077,437.72186,434.17438
0.0455,333781.6,-70257.75,-232441.48,0.0,-380.7944,-454.70074,462.13077,437.72186,434.17438
0.046,334549.97,-70651.73,-233127.83,0.0,-380.7944,-454.70074,462.13077,437.72186,434.17438
0.0465,334992.7,-70890.38,-233589.47,0.0,-157.41704,-454.70074,462.13077,448.44397,434.17438
0.047,335537.88,-71204.48,-234223.61,0.0,-157.41704,-454.70074,462.13077,448.44397,434.17438
0.0475,335836.7,-71381.6,-234573.08,0.0,-157.41704,-454.70074,462.13077,448.44397,434.17438
0.048,336208.3,-71589.125,-234956.42,0.0,-157.41704,-454.70074,462.13077,448.44397,434.17438
0.0485,336433.22,-71683.57,-235117.1,0.0,-157.41704,-454.70074,462.13077,448.44397,434.17438
0.049,336784.22,-71762.87,-235240.78,0.0,-157.41704,-454.70074,462.13077,448.44397,434.17438
0.0495,337059.4,-71785.336,-235265.98,0.0,-157.41704,-454.70074,462.13077,448.44397,434.17438
0.05,337553.4,-71800.08,-235266.58,0.0,-157.41704,-454.70074,462.13077,448.44397,434.17438
0.0505,337930.5,-71809.89,-235256.27,0.0,-157.41704,-454.70074,462.13077,448.44397,434.17438
0.051,338520.62,-71833.5,-235244.19,0.0,-157.41704,-454.70074,462.13077,448.44397,434.17438
0.0515,338896.47,-71856.58,-235249.38,0.0,-157.41704,-187.90411,462.13077,448.44397,446.9806
0.052,339388.53,-71904.875,-235297.44,0.0,-157.41704,-187.90411,462.13077,448.44397,446.9806
0.0525,339645.38,-71947.35,-235365.03,0.0,-157.41704,-187.90411,462.13077,448.44397,446.9806
0.053,339902.8,-72022.97,-235521.12,0.0,-157.41704,-187.90411,462.13077,448.44397,446.9806
0.0535,339981.06,-72075.484,-235654.02,0.0,-157.41704,-187.90411,462.13077,448.44397,446.9806
0.054,339955.22,-72140.54,-235873.56,0.0,-157.41704,-187.90411,462.13077,448.44397,446.9806
0.0545,339847.22,-72161.586,-236017.11,0.0,-157.41704,-187.90411,462.13077,448.44397,446.9806
0.055,339567.1,-72138.04,-236200.8,0.0,-157.41704,-187.90411,462.13077,448.44397,446.9806
0.0555,339325.94,-72077.17,-236288.08,0.0,-157.41704,-187.90411,462.13077,448.44397,446.9806
0.056,338926.3,-71916.08,-236347.81,0.0,-157.41704,-187.90411,462.13077,448.44397,446.9806
0.0565,338665.1,-71767.82,-236333.27,0.0,-157.41704,-187.90411,462.13077,448.44397,446.9806
0.057,338329.06,-71502.68,-236227.52,0.0,-157.41704,-187.90411,462.13077,448.44397,446.9806
0.0575,338169.44,-71312.03,-236107.22,0.0,-157.41704,-187.90411,462.13077,448.44397,446.9806
0.058,338061.97,-71034.16,-235876.78,0.0,-157.41704,-187.90411,462.13077,448.44397,446.9806
0.0585,338087.12,-70871.42,-235710.56,0.0,-157.41704,-187.90411,462.13077,448.44397,446.9806
0.059,338270.47,-70686.125,-235481.86,0.0,-157.41704,-187.90411,473.50793,448.44397,446.9806
0.0595,338474.34,-70611.734,-235364.98,0.0,-157.41704,-187.90411,473.50793,448.44397,446.9806
0.06,338874.4,-70580.9,-235273.25,0.0,-157.41704,-187.90411,473.50793,448.44397,446.9806
0.0605,339171.06,-70612.625,-235279.64,0.0,-157.41704,-187.90411,473.50793,448.44397,446.9806
0.061,339612.44,-70727.56,-235399.2,0.0,-157.41704,-187.90411,473.50793,448.44397,446.9806
0.0615,339883.16,-70838.516,-235549.27,0.0,-157.41704,-187.90411,473.50793,448.44397,446.9806
0.062,340223.03,-71033.234,-235860.56,0.0,-157.41704,-187.90411,473.50793,448.44397,446.9806
0.0625,340396.97,-71166.664,-236107.14,0.0,-157.41704,-187.90411,473.50793,448.44397,446.9806
0.063,340573.7,-71346.55,-236495.8,0.0,-157.41704,-187.90411,473.50793,448.44397,446.9806
0.0635,340637.03,-71439.96,-236742.16,0.0,-157.41704,-187.90411,473.50793,448.44397,446.9806
0.064,340681.78,-71524.9,-237054.17,0.0,0.0,-187.90411,473.50793,456.96298,446.9806
0.0645,340693.03,-71541.27,-237207.89,0.0,0.0,-187.90411,473.50793,456.96298,446.9806
0.065,340716.88,-71508.74,-237344.0,0.0,0.0,-187.90411,473.50793,456.96298,446.9806
0.0655,340761.8,-71455.18,-237373.38,0.0,0.0,-187.90411,473.50793,456.96298,446.9806
0.066,340895.38,-71343.086,-237340.11,0.0,0.0,-187.90411,473.50793,456.96298,446.9806
0.0665,341034.8,-71258.48,-237278.81,0.0,0.0,-187.90411,473.50793,456.96298,446.9806
0.067,341309.53,-71135.34,-237153.66,0.0,0.0,-187.90411,473.50793,456.96298,446.9806
0.0675,341523.25,-71065.56,-237065.62,0.0,0.0,-187.90411,473.50793,456.96298,446.9806
0.068,341859.28,-70991.06,-236957.17,0.0,0.0,-187.90411,473.50793,456.96298,446.9806
0.0685,342065.12,-70963.66,-236915.7,0.0,0.0,-187.90411,473.50793,456.96298,446.9806
0.069,342305.97,-70951.36,-236916.86,0.0,0.0,-88.23139,473.50793,456.96298,451.7649
0.0695,342399.88,-70956.21,-236963.1,0.0,0.0,-88.23139,473.50793,456.96298,451.7649
0.07,342418.7,-70969.44,-237094.4,0.0,0.0,-88.23139,473.50793,456.96298,451.7649
0.0705,342345.16,-70973.055,-237212.92,0.0,0.0,-88.23139,473.50793,456.96298,451.7649
0.071,342110.8,-70952.805,-237410.48,0.0,0.0,-88.23139,473.50793,456.96298,451.7649
0.0715,341879.44,-70911.33,-237536.61,0.0,0.0,-88.23139,473.50793,456.96298,451.7649
0.072,341450.66,-70792.08,-237685.83,0.0,0.0,-88.23139,473.50793,456.96298,451.7649
0.0725,341133.22,-70670.445,-237743.25,0.0,0.0,-88.23139,473.50793,456.96298,451.7649
0.073,340656.0,-70428.89,-237749.6,0.0,0.0,-88.23139,473.50793,456.96298,451.7649
0.0735,340363.7,-70236.79,-237697.83,0.0,0.0,-88.23139,473.50793,456.96298,451.7649
0.074,340019.72,-69924.04,-237544.08,0.0,0.0,-88.23139,473.50793,456.96298,451.7649
0.0745,339872.25,-69714.67,-237402.78,0.0,0.0,-88.23139,473.50793,456.96298,451.7649
0.075,339793.38,-69426.914,-237162.97,0.0,0.0,-88.23139,473.50793,456.96298,451.7649
0.0755,339838.1,-69267.305,-237005.92,0.0,0.0,-88.23139,473.50793,456.96298,451.7649
0.076,340034.72,-69095.85,-236811.86,0.0,0.0,-88.23139,473.50793,456.96298,451.7649
0.0765,340229.47,-69033.586,-236729.67,0.0,0.0,-88.23139,474.70038,456.96298,451.7649
0.077,340581.12,-69020.15,-236701.92,0.0,0.0,-88.23139,474.70038,456.96298,451.7649
0.0775,340825.34,-69060.02,-236754.64,0.0,0.0,-88.23139,474.70038,456.96298,451.7649
0.078,341164.62,-69176.836,-236939.61,0.0,0.0,-88.23139,474.70038,456.96298,451.7649
0.0785,341351.5,-69279.555,-237124.64,0.0,0.0,-88.23139,474.70038,456.96298,451.7649
0.079,341551.66,-69445.0,-237466.7,0.0,0.0,-88.23139,474.70038,456.96298,451.7649
0.0795,341627.34,-69547.62,-237716.42,0.0,0.0,-88.23139,474.70038,456.96298,451.7649
0.08,341658.28,-69666.2,-238082.38,0.0,0.0,-88.23139,474.70038,456.96298,451.7649
0.0805,341630.84,-69710.75,-238296.56,0.0,0.0,-88.23139,474.70038,456.96298,451.7649
0.081,341562.56,-69716.66,-238541.9,0.0,0.0,-88.23139,474.70038,458.22058,451.7649
0.0815,341514.53,-69680.66,-238645.06,0.0,0.0,-88.23139,474.70038,458.22058,451.7649
0.082,341479.84,-69576.31,-238706.4,0.0,0.0,-88.23139,474.70038,458.22058,451.7649
0.0825,341498.72,-69481.99,-238690.12,0.0,0.0,-88.23139,474.70038,458.22058,451.7649
0.083,341605.06,-69322.94,-238597.98,0.0,0.0,-88.23139,474.70038,458.22058,451.7649
0.0835,341729.4,-69218.33,-238506.66,0.0,0.0,-88.23139,474.70038,458.22058,451.7649
0.084,341983.3,-69084.56,-238356.28,0.0,0.0,-88.23139,474.70038,458.22058,451.7649
0.0845,342179.6,-69018.47,-238265.47,0.0,0.0,-88.23139,474.70038,458.22058,451.7649
0.085,342469.75,-68957.07,-238170.38,0.0,0.0,-88.23139,474.70038,458.22058,451.7649
0.0855,342633.3,-68938.445,-238145.73,0.0,0.0,-88.23139,474.70038,458.22058,451.7649
0.086,342791.2,-68934.87,-238177.12,0.0,0.0,-68.52609,474.70038,458.22058,452.71075
0.0865,342823.12,-68942.17,-238243.67,0.0,0.0,-68.52609,474.70038,458.22058,452.71075
0.087,342749.3,-68953.51,-238400.33,0.0,0.0,-68.52609,474.70038,458.22058,452.71075
0.0875,342618.78,-68950.47,-238528.69,0.0,0.0,-68.52609,474.70038,458.22058,452.71075
0.088,342310.25,-68909.35,-238724.84,0.0,0.0,-68.52609,474.70038,458.22058,452.71075
0.0885,343147.5,-69127.0,-239630.33,0.0,0.0,-68.52609,474.70038,458.22058,452.71075
0.089,342938.75,-69096.94,-240024.61,0.0,0.0,-68.52609,474.70038,458.22058,452.71075
0.0895,342967.47,-69047.44,-240409.7,0.0,0.0,-68.52609,474.70038,458.22058,452.71075
0.09,343196.16,-68926.06,-241066.78,0.0,0.0,-68.52609,474.70038,458.22058,452.71075
0.0905,343453.97,-68847.32,-241490.67,0.0,0.0,-68.52609,474.70038,458.22058,452.71075
0.091,343969.88,-68806.53,-242010.36,0.0,0.0,-68.52609,474.70038,458.22058,452.71075
0.0915,344373.4,-68849.95,-242248.03,0.0,0.0,-68.52609,474.70038,458.22058,452.71075
0.092,344993.28,-68990.66,-242438.53,0.0,0.0,-68.52609,474.70038,458.22058,452.71075
0.0925,345376.03,-69099.23,-242481.34,0.0,0.0,-68.52609,474.70038,458.22058,452.71075
0.093,345889.94,-69248.03,-242497.6,0.0,0.0,-68.52609,474.70038,458.22058,452.71075
0.0935,346216.6,-69345.73,-242527.67,0.0,0.0,-68.52609,477.71646,458.22058,452.71075
0.094,346734.2,-69532.55,-242672.88,0.0,0.0,-68.52609,477.71646,458.22058,452.71075
0.0945,347116.28,-69702.26,-242858.56,0.0,0.0,-68.52609,477.71646,458.22058,452.71075
0.095,347719.6,-70017.664,-243270.95,0.0,0.0,-68.52609,477.71646,458.22058,452.71075
0.0955,348107.1,-70246.15,-243617.67,0.0,0.0,-68.52609,477.71646,458.22058,452.71075
0.096,348607.62,-70574.414,-244196.28,0.0,0.0,-68.52609,477.71646,458.22058,452.71075
0.0965,348867.1,-70768.12,-244585.6,0.0,0.0,-68.52609,477.71646,458.22058,452.71075
0.097,349144.44,-71008.76,-245109.23,0.0,0.0,-68.52609,477.71646,458.22058,452.71075
0.0975,349265.56,-71131.67,-245385.89,0.0,0.0,-68.52609,477.71646,458.22058,452.71075
0.098,349377.88,-71252.414,-245663.39,0.0,0.0,-68.52609,477.71646,464.39957,452.71075
0.0985,349443.97,-71288.65,-245757.88,0.0,0.0,-68.52609,477.71646,464.39957,452.71075
0.099,349573.9,-71283.98,-245788.8,0.0,0.0,-68.52609,477.71646,464.39957,452.71075
0.0995,349705.72,-71253.34,-245753.5,0.0,0.0,-68.52609,477.71646,464.39957,452.71075
0.1,349989.3,-71193.13,-245656.78,0.0,0.0,-68.52609,477.71646,464.39957,452.71075
0.1005,350230.66,-71157.75,-245577.95,0.0,0.0,-68.52609,477.71646,464.39957,452.71075
0.101,350631.6,-71125.33,-245464.22,0.0,0.0,-68.52609,477.71646,464.39957,452.71075
0.1015,350895.78,-71119.59,-245405.7,0.0,0.0,-68.52609,477.71646,464.39957,452.71075
0.102,351231.2,-71134.25,-245360.34,0.0,0.0,-68.52609,477.71646,464.39957,452.71075
0.1025,351396.3,-71159.45,-245376.61,0.0,0.0,-68.52609,477.71646,464.39957,452.71075
0.103,351526.22,-71217.12,-245467.86,0.0,0.0,0.0,477.71646,464.39957,460.75778
0.1035,351526.84,-71261.17,-245565.1,0.0,0.0,0.0,477.71646,464.39957,460.75778
0.104,351388.44,-71312.35,-245738.39,0.0,0.0,0.0,477.71646,464.39957,460.75778
0.1045,351202.34,-71320.72,-245853.44,0.0,0.0,0.0,477.71646,464.39957,460.75778
0.105,350801.7,-71272.02,-245996.02,0.0,0.0,0.0,477.71646,464.39957,460.75778
0.1055,350475.66,-71191.5,-246057.14,0.0,0.0,0.0,477.71646,464.39957,460.75778
0.106,349949.2,-70999.03,-246079.55,0.0,0.0,0.0,477.71646,464.39957,460.75778
0.1065,349599.47,-70828.96,-246040.19,0.0,0.0,0.0,477.71646,464.39957,460.75778
0.107,349135.78,-70529.52,-245894.73,0.0,0.0,0.0,477.71646,464.39957,460.75778
0.1075,348893.38,-70315.44,-245745.58,0.0,0.0,0.0,477.71646,464.39957,460.75778
