Time,Modbus1.Q_level,Modbus2.Q_level,Modbus3.Q_level,measurement1.Three-phase Meter1.VLn_RMS,measurement2.Three-phase Meter2.VLn_RMS,measurement3.Three-phase Meter3.VLn_RMS,measurement4.Three-phase Meter4.POWER_P,measurement4.Three-phase Meter4.POWER_Q,measurement5.Three-phase Meter5.POWER_P,measurement5.Three-phase Meter5.POWER_Q,measurement6.Three-phase Meter6.POWER_P,measurement6.Three-phase Meter6.POWER_Q
0.0,603247.6,739513.1,421067.72,560.18945,402.68655,544.1014,39.99367,30.012815,52.122013,21.203398,-56.362164,-25.462744
0.0005,599378.8,736299.75,416373.88,560.18945,402.68655,544.1014,40.271046,29.479155,52.25193,20.66633,-55.68935,-25.573246
0.001,596330.75,733557.6,412909.22,560.18945,402.68655,544.1014,40.447807,29.071356,52.325985,20.27217,-55.092075,-25.634035
0.0015,591058.6,728570.56,407272.2,425.028,402.68655,544.1014,40.6883,28.39095,52.41038,19.637463,-54.20973,-25.88671
0.002,587107.75,724684.94,403263.72,425.028,402.68655,544.1014,40.823425,27.898216,52.447533,19.190945,-53.48963,-26.08607
0.0025,580606.06,718107.56,396948.22,425.028,402.68655,544.1014,40.983807,27.115889,52.473877,18.495123,-52.45695,-26.507814
0.003,575936.6,713297.94,392575.34,425.028,402.68655,544.1014,41.05998,26.574522,52.472713,18.018064,-51.69645,-26.86249
0.0035,568542.06,705547.9,385826.4,425.028,402.68655,544.1014,41.128613,25.743769,52.444954,17.288578,-50.645824,-27.453154
0.004,563410.25,700115.7,381226.38,425.028,402.68655,544.1014,41.146976,25.1835,52.410675,16.79502,-49.92498,-27.921507
0.0045,555518.4,691668.0,374199.56,425.028,402.68655,544.1014,41.137527,24.338324,52.337555,16.047297,-48.89355,-28.625317
0.005,550159.25,685908.3,369436.34,425.028,402.68655,544.1014,41.10888,23.777761,52.275227,15.544661,-48.232895,-29.156673
0.0055,542036.3,677099.5,362173.84,425.028,402.68655,544.1014,41.038593,22.9397,52.161686,14.785198,-47.249096,-29.958181
0.006,536570.4,671172.0,357251.97,425.028,402.68655,544.1014,40.976376,22.387745,52.07154,14.275136,-46.611465,-30.535187
0.0065,528310.94,662148.0,349752.66,425.028,402.68655,544.1014,40.86068,21.568686,51.91319,13.50742,-45.68234,-31.386053
0.007,522763.12,656069.0,344683.47,425.028,402.68655,544.1014,40.771805,21.026133,51.790062,12.994392,-45.080887,-32.005726
0.0075,514355.47,646848.25,337013.97,425.028,402.68655,544.1014,40.617203,20.21945,51.575493,12.227234,-44.180687,-32.905804
0.008,508703.2,640630.5,331892.9,425.028,402.68655,544.1014,40.500042,19.687407,51.41076,11.721653,-43.63119,-33.547577
0.0085,500181.12,631235.0,324273.25,425.028,402.68655,544.1014,40.29724,18.902372,51.129852,10.981091,-42.799465,-34.539513
0.009,494503.06,624954.25,319287.47,425.028,402.68655,544.1014,40.143673,18.391207,50.92096,10.505256,-42.279877,-35.194626
0.0095,486075.88,615588.5,312046.38,425.028,402.68655,544.1014,39.88493,17.651169,50.58082,9.828452,-41.5787,-36.209457
0.01,480583.06,609473.2,307436.72,425.028,402.68655,544.1014,39.69425,17.182251,50.339897,9.4073925,-41.14507,-36.899017
0.0105,472646.16,600636.56,300942.0,425.028,402.68655,544.1014,39.385506,16.524723,49.967213,8.828318,-40.607365,-37.921024
0.011,467632.22,595061.3,296937.4,425.028,402.68655,544.1014,39.169975,16.121851,49.718384,8.480103,-40.300728,-38.592472
0.0115,460645.3,587348.75,291466.94,425.028,402.68655,544.1014,38.845947,15.577344,49.35838,8.015506,-39.95971,-39.561554
0.012,456403.6,582711.4,288187.34,425.028,402.68655,544.1014,38.638268,15.256912,49.135284,7.742697,-39.771687,-40.16018
0.0125,450747.66,576654.94,283806.56,425.028,402.68655,544.1014,38.35419,14.841617,48.83896,7.382282,-39.61181,-40.964706
0.013,447473.5,573240.0,281221.66,425.028,402.68655,446.35626,38.191555,14.602516,48.67312,7.1691213,-39.534245,-41.436546
0.0135,443302.34,569107.4,277776.28,425.028,402.68655,446.35626,38.00147,14.293614,48.479214,6.878112,-39.468994,-41.996525
0.014,440980.1,566949.1,275718.66,425.028,402.68655,446.35626,37.91522,14.112683,48.388382,6.6948647,-39.45587,-42.277752
0.0145,438110.84,564536.44,272882.12,425.028,402.68655,446.35626,37.85757,13.867098,48.310005,6.4256196,-39.415123,-42.610638
0.015,436525.06,563368.1,271094.2,425.028,402.68655,446.35626,37.866386,13.710203,48.29426,6.242335,-39.361313,-42.70148
0.0155,434490.1,562064.25,268461.75,425.028,402.68655,446.35626,37.949596,13.464951,48.320324,5.951798,-39.24873,-42.740086
0.016,433256.25,561402.75,266683.06,425.028,324.95068,446.35626,38.049797,13.286881,48.366245,5.742967,-39.08941,-42.714638
0.0165,431431.6,560471.1,263908.03,425.028,324.95068,446.35626,38.251324,12.983993,48.466434,5.401373,-38.774666,-42.532364
0.017,427317.25,552871.2,261205.1,425.028,324.95068,446.35626,38.645554,12.067919,48.578686,4.9626427,-37.287724,-42.26629
0.0175,421545.8,544363.9,256665.36,425.028,324.95068,446.35626,39.334988,10.99992,48.75102,4.3341284,-35.402447,-40.64364
0.018,418688.28,542428.9,253456.98,425.028,324.95068,446.35626,39.671665,10.625432,48.8449,3.965872,-34.774033,-39.61624
0.0185,413446.4,539050.6,247674.9,425.028,324.95068,446.35626,40.210632,9.923907,48.994522,3.3098383,-33.742283,-38.20101
0.019,409603.03,536914.9,243257.28,425.028,324.95068,446.35626,40.601875,9.3994255,49.10871,2.8100119,-33.004856,-37.251694
0.0195,403780.03,534203.6,236045.64,373.48453,324.95068,446.35626,41.259274,8.555137,49.314533,1.9814155,-31.907318,-35.81203
0.02,400057.88,532768.4,231035.84,373.48453,324.95068,446.35626,41.74671,7.9644217,49.48683,1.3842654,-31.145918,-34.790493
0.0205,394918.06,531069.44,223524.42,373.48453,324.95068,446.35626,42.55355,7.0319986,49.820847,0.43110132,-30.060343,-33.18725
0.021,391785.8,530205.4,218643.69,373.48453,324.95068,446.35626,43.138363,6.3826623,50.105244,-0.24063417,-29.311924,-32.055626
0.0215,387497.22,529190.2,211609.0,373.48453,324.95068,446.35626,44.0901,5.356318,50.63626,-1.3036392,-28.17363,-30.283792
0.022,384859.1,528714.06,207108.62,373.48453,324.95068,446.35626,44.77468,4.638273,51.061295,-2.0523286,-27.424253,-29.028442
0.0225,381209.34,528270.44,200575.17,373.48453,324.95068,446.35626,45.890797,3.5001915,51.797234,-3.243191,-26.207884,-27.09438
0.023,378930.88,528117.0,196293.75,373.48453,324.95068,446.35626,46.691803,2.689769,52.344612,-4.0850897,-25.370808,-25.693298
0.0235,375666.4,528077.0,189864.34,373.48453,324.95068,446.35626,47.98694,1.3910742,53.233917,-5.4225693,-24.052599,-23.483868
0.024,373537.38,528103.94,185496.77,373.48453,324.95068,446.35626,48.90328,0.4627996,53.863052,-6.3645787,-23.094908,-21.915552
0.0245,370295.22,528130.9,178698.89,373.48453,324.95068,446.35626,50.345726,-1.0267076,54.84416,-7.8545575,-21.589767,-19.416159
0.025,368068.22,528083.8,173945.11,373.48453,324.95068,446.35626,51.340977,-2.0837,55.514664,-8.8981,-20.507004,-17.715422
0.0255,364563.9,527768.0,166445.72,373.48453,324.95068,446.35626,52.8594,-3.7602463,56.528374,-10.534745,-18.846382,-15.0629015
0.026,362099.03,527364.6,161229.44,373.48453,324.95068,446.35626,53.879948,-4.932559,57.202637,-11.668101,-17.687134,-13.280029
0.0265,358174.22,526403.8,153225.84,373.48453,324.95068,446.35626,55.403873,-6.7613125,58.20211,-13.417609,-15.922111,-10.538063
0.027,355386.7,525541.75,147883.3,373.48453,324.95068,446.35626,56.408978,-8.01878,58.856724,-14.607808,-14.778756,-8.741565
0.0275,351013.25,523956.8,140036.19,373.48453,324.95068,446.35626,57.8861,-9.942112,59.81923,-16.41013,-13.025161,-5.991397
0.028,348018.72,522767.6,134990.23,373.48453,324.95068,446.35626,58.849678,-11.243131,60.45091,-17.614393,-11.942665,-4.195986
0.0285,343584.5,520969.8,127756.875,373.48453,324.95068,446.35626,60.261337,-13.197194,61.391804,-19.41466,-10.32795,-1.477402
0.029,340791.16,519857.8,123165.57,373.48453,324.95068,446.35626,61.186134,-14.498764,62.018864,-20.60427,-9.299332,0.34418786
0.0295,337005.72,518556.47,116625.11,373.48453,324.95068,446.35626,62.56371,-16.432257,62.969807,-22.369682,-7.8920436,3.1120133
0.03,334828.12,518053.78,112495.625,373.48453,324.95068,446.35626,63.48281,-17.706776,63.616535,-23.534927,-7.0156107,4.95429
0.0305,332117.66,517986.06,106632.34,373.48453,324.95068,446.35626,64.88279,-19.594687,64.61295,-25.271822,-5.8540664,7.876946
0.031,330684.94,518447.9,102921.67,373.48453,324.95068,505.62253,65.837036,-20.84263,65.29819,-26.426308,-5.170005,9.857277
0.0315,329055.06,519892.9,97580.92,373.48453,324.95068,505.62253,67.311905,-22.7076,66.3605,-28.164062,-4.2676077,13.020216
0.032,328273.12,521291.94,94112.445,373.48453,324.95068,505.62253,68.326614,-23.957968,67.091324,-29.333254,-3.72323,15.170053
0.0325,327417.4,523873.47,88930.03,373.48453,324.95068,505.62253,69.89237,-25.860083,68.21242,-31.116774,-2.9759452,18.60909
0.033,326964.44,525807.0,85426.48,373.48453,324.95068,505.62253,70.963234,-27.1554,68.9706,-32.330467,-2.5097885,20.953974
0.0335,326280.75,528767.2,80023.05,373.48453,324.95068,505.62253,72.591064,-29.156584,70.10952,-34.19315,-1.818021,24.579964
0.034,325720.44,530667.06,76300.414,373.48453,451.2324,505.62253,73.68255,-30.533245,70.86233,-35.4624,-1.3530422,27.094131
0.0345,324597.8,533221.44,70539.945,373.48453,451.2324,505.62253,75.30192,-32.664337,71.96633,-37.402496,-0.6676533,30.803463
0.035,323613.03,534649.4,66597.36,373.48453,451.2324,505.62253,76.357185,-34.123814,72.677536,-38.713463,-0.20813058,33.347694
0.0355,321778.88,536346.56,60577.18,373.48453,451.2324,505.62253,77.885765,-36.36021,73.69862,-40.691517,0.48165196,37.117382
0.036,320349.72,537205.1,56530.156,373.48453,451.2324,505.62253,78.86033,-37.870686,74.34824,-42.010113,0.9173663,39.622494
0.0365,317996.5,538208.75,50484.63,373.48453,451.2324,505.62253,80.25018,-40.14409,75.2752,-43.97155,1.5055914,43.28547
0.037,316361.34,538801.5,46521.348,373.48453,451.2324,505.62253,81.12862,-41.651512,75.865036,-45.260365,1.8468741,45.706635
0.0375,313955.78,539777.4,40758.867,602.35156,451.2324,505.62253,82.384285,-43.881992,76.71792,-47.155632,2.2350762,49.246128
0.038,312474.3,540628.4,37076.266,602.35156,451.2324,505.62253,83.18767,-45.33842,77.27227,-48.393005,2.370985,51.565514
0.0385,310561.56,542358.6,31817.799,602.35156,451.2324,505.62253,84.36036,-47.471615,78.09469,-50.20697,2.4570096,55.001152
0.039,309554.44,543904.8,28484.467,602.35156,451.2324,505.62253,85.13319,-48.860302,78.644325,-51.3914,2.3478937,57.29994
0.0395,308501.1,546884.4,23697.45,602.35156,451.2324,505.62253,86.297966,-50.889984,79.481285,-53.139244,2.042542,60.724133
0.04,308098.3,549304.2,20600.14,602.35156,451.2324,505.62253,87.086075,-52.218456,80.04955,-54.29314,1.7101115,63.054348
0.0405,307857.56,553519.25,15999.331,602.35156,451.2324,505.62253,88.29817,-54.18922,80.91807,-56.019382,1.036255,66.62965
0.041,307864.75,556618.25,12907.053,602.35156,451.2324,505.62253,89.126945,-55.50269,81.50477,-57.174458,0.5234295,69.036896
0.0415,307951.88,561461.2,8151.623,602.35156,451.2324,505.62253,90.389114,-57.493984,82.387184,-58.923744,-0.38508478,72.712685
0.042,307960.03,564693.75,4868.2607,602.35156,451.2324,505.62253,91.23444,-58.845886,82.969025,-60.104126,-1.0197562,75.230896
0.0425,307759.38,569300.7,-253.12628,602.35156,451.2324,505.62253,92.49434,-60.91559,83.816376,-61.896317,-2.0468678,79.0159
0.043,307415.4,572107.06,-3793.4395,602.35156,451.2324,505.62253,93.31615,-62.32369,84.355835,-63.101944,-2.7350426,81.55151
0.0435,306526.56,575781.06,-9238.417,602.35156,451.2324,505.62253,94.50021,-64.47338,85.11855,-64.91652,-3.7866678,85.383644
0.044,305685.94,577860.25,-12903.989,602.35156,451.2324,505.62253,95.24834,-65.9213,85.59184,-66.12193,-4.5307903,87.87794
0.0445,304126.38,580479.5,-18341.08,602.35156,451.2324,505.62253,96.29884,-68.09543,86.2478,-67.90657,-5.645562,91.56653
0.045,302946.4,581952.8,-21858.037,602.35156,451.2324,505.62253,96.949486,-69.535065,86.652534,-69.07117,-6.451753,93.95051
0.0455,301121.7,583978.1,-26878.213,602.35156,451.2324,505.62253,97.85642,-71.655876,87.222824,-70.770485,-7.7652736,97.41489
0.046,299970.25,585309.2,-30023.795,602.35156,451.2324,505.62253,98.42454,-73.03365,87.58677,-71.86666,-8.71694,99.64327
0.0465,298490.7,587546.06,-34426.137,602.35156,451.2324,505.62253,99.2394,-75.03397,88.12488,-73.45313,-10.3357115,102.908714
0.047,297745.44,589297.25,-37164.992,602.35156,451.2324,505.62253,99.77634,-76.32046,88.48869,-74.47543,-11.543782,105.02151
0.0475,297053.7,592488.06,-41046.03,602.35156,451.2324,505.62253,100.58687,-78.1869,89.05451,-75.968,-13.555843,108.14662
0.048,296873.78,595006.75,-43542.05,602.35156,451.2324,505.62253,101.144646,-79.39916,89.45038,-76.943954,-14.98598,110.18912
0.0485,296950.6,599368.25,-47276.543,602.35156,451.2324,505.62253,102.01696,-81.19,90.07569,-78.39699,-17.38681,113.3302
0.049,297156.88,602597.25,-49835.523,602.35156,451.2324,867.88904,102.629105,-82.38012,90.51139,-79.36934,-19.051792,115.40154
0.0495,297538.0,607700.9,-53910.71,602.35156,451.2324,867.88904,103.58379,-84.180916,91.18306,-80.84921,-21.718563,118.643906
0.05,297732.38,611155.44,-56846.98,602.35156,451.2324,867.88904,104.23972,-85.408295,91.6326,-81.85702,-23.556541,120.83886
0.0505,297735.9,616126.6,-61643.97,602.35156,451.2324,867.88904,105.22687,-87.30298,92.29131,-83.405876,-26.353994,124.16054
0.051,297436.1,619181.8,-65111.562,602.35156,451.2324,867.88904,105.871445,-88.60523,92.70799,-84.46144,-28.23372,126.434975
0.0515,296415.16,623198.56,-70687.92,602.35156,451.2324,867.88904,106.795425,-90.620094,93.28367,-86.07154,-31.017727,129.787
0.052,295333.03,625429.25,-74615.46,602.35156,839.30896,867.88904,107.36349,-91.99265,93.624825,-87.15289,-32.873005,132.01494
0.0525,293154.1,628091.75,-80720.54,602.35156,839.30896,867.88904,108.13779,-94.0765,94.06639,-88.76696,-35.600048,135.2668
0.053,291395.84,629440.5,-84869.84,602.35156,839.30896,867.88904,108.590164,-95.46428,94.31525,-89.82577,-37.42194,137.36055
0.0535,288440.62,631008.0,-91115.57,602.35156,839.30896,867.88904,109.17042,-97.52262,94.628265,-91.36888,-40.155056,140.33847
0.054,286359.94,631871.2,-95247.6,602.35156,839.30896,867.88904,109.49945,-98.859695,94.80459,-92.35851,-42.009777,142.19888
0.0545,283217.66,633151.9,-101344.56,602.35156,839.30896,867.88904,109.92935,-100.79756,95.039444,-93.774376,-44.88006,144.81577
0.055,281197.53,634141.94,-105329.24,602.35156,839.30896,867.88904,110.18569,-102.03633,95.18764,-94.67404,-46.885212,146.4301
0.0555,278355.62,636003.06,-111208.94,969.2062,839.30896,867.88904,110.55367,-103.81448,95.41568,-95.962494,-49.999092,148.70888
0.056,276608.53,637569.4,-115100.81,969.2062,839.30896,867.88904,110.80319,-104.95093,95.580345,-96.78886,-52.229355,150.15303
0.0565,274207.22,640427.2,-120998.14,969.2062,839.30896,867.88904,111.20543,-106.59955,95.858406,-97.99648,-55.700535,152.20503
0.057,272716.03,642611.4,-125043.46,969.2062,839.30896,867.88904,111.49592,-107.67284,96.06474,-98.79359,-58.156803,153.56639
0.0575,270514.66,646164.1,-131402.4,969.2062,839.30896,867.88904,111.9764,-109.27682,96.40019,-99.99751,-61.978073,155.56404
0.058,268973.44,648586.94,-135884.7,969.2062,839.30896,867.88904,112.318855,-110.35753,96.63249,-100.81591,-64.60153,156.9285
0.0585,266364.66,652015.94,-143011.61,969.2062,839.30896,867.88904,112.85161,-112.01991,96.97628,-102.078384,-68.60794,158.95535
0.059,264346.03,654010.8,-148029.72,969.2062,839.30896,867.88904,113.20416,-113.161606,97.190414,-102.945114,-71.30888,160.37132
0.0595,260799.95,656312.5,-155907.64,969.2062,839.30896,867.88904,113.699615,-114.93285,97.46509,-104.27753,-75.33178,162.46802
0.06,258055.7,657285.1,-161339.1,969.2062,839.30896,867.88904,113.98817,-116.1473,97.60622,-105.179794,-77.99145,163.84651
0.0605,253386.77,657806.8,-169633.31,969.2062,839.30896,867.88904,114.338394,-118.00078,97.742546,-106.53467,-81.902626,165.88014
0.061,249947.48,657539.4,-175181.3,969.2062,839.30896,867.88904,114.50739,-119.24482,97.78156,-107.427124,-84.47717,167.13148
0.0615,244402.53,656320.2,-183400.11,969.2062,839.30896,867.88904,114.65851,-121.0878,97.76339,-108.72448,-88.25627,168.90076
0.062,240534.44,655066.8,-188747.7,969.2062,839.30896,867.88904,114.69293,-122.289246,97.707954,-109.549835,-90.744,169.9477
0.0625,234617.83,652773.8,-196501.28,969.2062,839.30896,867.88904,114.66657,-124.01641,97.57878,-110.71482,-94.49488,171.30629
0.063,230692.77,651122.0,-201483.1,969.2062,839.30896,867.88904,114.609886,-125.10962,97.47513,-111.43922,-96.9672,172.08131
0.0635,224959.05,648666.7,-208725.84,969.2062,839.30896,867.88904,114.48829,-126.65071,97.31687,-112.44712,-100.8277,173.02487
0.064,221292.83,647160.25,-213461.3,969.2062,839.30896,867.88904,114.406235,-127.61756,97.22322,-113.07282,-103.45573,173.51166
0.0645,216044.72,645192.3,-220561.98,969.2062,839.30896,867.88904,114.306465,-128.98773,97.11611,-113.96088,-107.59347,174.07207
0.065,212675.67,644098.44,-225382.06,969.2062,839.30896,867.88904,114.26962,-129.86195,97.0722,-114.532326,-110.40961,174.36075
0.0655,207690.66,642730.94,-232882.92,969.2062,839.30896,867.88904,114.26878,-131.14363,97.04668,-115.38294,-114.879005,174.74489
0.066,204326.4,641933.25,-238134.31,969.2062,839.30896,867.88904,114.30619,-131.99792,97.0531,-115.95872,-117.90236,174.96672
0.0665,199048.44,640691.1,-246465.42,969.2062,839.30896,1128.1376,114.39859,-133.30725,97.08113,-116.85255,-122.57043,175.31401
0.067,191209.14,610324.56,-249573.02,969.2062,839.30896,1128.1376,111.309746,-134.87119,96.448006,-117.52605,-120.17079,175.31967
0.0675,177236.81,561027.6,-254955.0,969.2062,839.30896,1128.1376,107.330795,-135.26219,94.95796,-117.18453,-115.97409,173.56607
0.068,168611.88,548615.6,-262223.84,969.2062,839.30896,1128.1376,106.470024,-134.9797,94.25697,-116.86071,-115.85614,172.48811
0.0685,153618.92,536335.44,-276388.38,969.2062,839.30896,1128.1376,105.01475,-134.56746,93.07919,-116.44313,-115.080475,170.91583
0.069,143609.84,530692.06,-286569.2,969.2062,839.30896,1128.1376,104.02588,-134.23308,92.18109,-116.12134,-114.39965,169.79776
0.0695,130468.734,522916.88,-299964.75,969.2062,839.30896,1128.1376,102.61302,-133.56723,90.68697,-115.43408,-113.322716,168.01851
0.07,123127.11,517653.7,-306670.28,969.2062,1138.2571,1128.1376,101.73435,-132.97122,89.64713,-114.78497,-112.64591,166.7282
0.0705,113641.266,510922.38,-313752.75,969.2062,1138.2571,1128.1376,100.52395,-131.76575,88.145134,-113.490944,-111.77134,164.42844
0.071,108184.26,508236.88,-317470.44,969.2062,1138.2571,1128.1376,99.80634,-130.70972,87.25111,-112.42807,-111.30993,162.62253
0.0715,101926.23,507474.34,-323033.7,969.2062,1138.2571,1128.1376,98.929306,-128.7142,86.1517,-110.581024,-110.957855,159.42422
0.072,99520.82,508706.7,-326886.3,969.2062,1138.2571,1128.1376,98.52653,-127.134895,85.605225,-109.21177,-111.06981,157.00072
0.0725,98546.73,512086.03,-331944.38,969.2062,1138.2571,1128.1376,98.25663,-124.48428,85.08177,-106.9927,-111.69221,153.17564
0.073,99040.47,515065.16,-334149.28,969.2062,1138.2571,1128.1376,98.31134,-122.59976,84.93221,-105.424644,-112.481316,150.59694
0.0735,100192.375,521036.28,-335437.9,1156.0278,1138.2571,1128.1376,98.72631,-119.71097,85.00169,-102.97995,-114.08066,146.88223
0.074,100863.87,526448.94,-335529.66,1156.0278,1138.2571,1128.1376,99.19887,-117.788216,85.23177,-101.318756,-115.36299,144.52623
0.0745,102082.93,537072.06,-336145.2,1156.0278,1138.2571,1128.1376,100.14351,-114.95314,85.81404,-98.8353,-117.5524,141.2933
0.075,103508.875,545623.8,-337593.88,1156.0278,1138.2571,1128.1376,100.901505,-113.10828,86.32366,-97.21376,-119.11399,139.26569
0.0755,106977.09,559808.3,-341412.84,1156.0278,1138.2571,1128.1376,102.17636,-110.41434,87.19854,-94.86024,-121.596306,136.5158
0.076,109994.16,569625.3,-344496.1,1156.0278,1138.2571,1128.1376,103.08959,-108.66668,87.813065,-93.34478,-123.27119,134.81541
0.0765,114845.945,584181.06,-348655.75,1156.0278,1138.2571,1128.1376,104.49357,-106.10602,88.72183,-91.12858,-125.786736,132.38231
0.077,117977.78,593570.4,-350627.56,1156.0278,1138.2571,1128.1376,105.41892,-104.42349,89.29745,-89.66689,-127.39708,130.85579
