Time,Modbus1.Q_level,Modbus2.Q_level,Modbus3.Q_level,measurement1.Three-phase Meter1.VLn_RMS,measurement2.Three-phase Meter2.VLn_RMS,measurement3.Three-phase Meter3.VLn_RMS,measurement4.Three-phase Meter4.POWER_P,measurement4.Three-phase Meter4.POWER_Q,measurement5.Three-phase Meter5.POWER_P,measurement5.Three-phase Meter5.POWER_Q,measurement6.Three-phase Meter6.POWER_P,measurement6.Three-phase Meter6.POWER_Q
0.0,-156.61276,-3629.5864,-13692.961,698.2134,673.2144,661.63617,37.99356,-14.481679,37.978535,-15.923654,8.484942,12.160784
0.0005,-2504.988,-7757.1562,-13626.285,698.2134,673.2144,661.63617,36.374134,-14.041979,36.576584,-15.101544,9.256906,10.156512
0.001,-4754.593,-11172.77,-14274.448,698.2134,673.2144,661.63617,35.263107,-13.833559,35.5948,-14.625273,9.681378,8.775017
0.0015,-9118.538,-17234.53,-16262.314,698.2134,673.2144,661.63617,33.550095,-13.645619,34.05418,-14.019389,10.170742,6.6418505
0.002,-12648.241,-21852.107,-18239.01,698.2134,673.2144,661.63617,32.37781,-13.600868,32.98475,-13.687838,10.394169,5.1872478
0.0025,-18792.512,-29549.32,-22130.186,698.2134,673.2144,661.63617,30.579428,-13.648542,31.32161,-13.298019,10.571799,2.9709213
0.003,-23407.508,-35141.812,-25309.125,698.2134,673.2144,661.63617,29.359241,-13.755468,30.177734,-13.109059,10.578186,1.4865143
0.0035,-29810.25,-41405.38,-29508.498,698.2134,673.2144,661.63617,25.709106,-13.756392,27.592945,-12.777047,8.45767,-1.1902409
0.004,-36092.066,-49416.44,-34094.246,698.2134,673.2144,661.63617,24.421566,-14.090588,26.36537,-12.760695,8.301688,-3.2460907
0.0045,-45326.74,-60538.562,-40994.22,698.2134,673.2144,661.63617,22.240696,-14.579765,24.317345,-12.749796,7.629312,-6.1619906
0.005,-51160.645,-67228.64,-45369.4,698.2134,673.2144,661.63617,20.690977,-14.895331,22.848734,-12.736828,6.962208,-7.964641
0.0055,-59242.996,-76391.65,-51270.277,698.2134,673.2144,661.63617,18.325756,-15.364822,20.55223,-12.69377,5.742515,-10.456414
0.006,-64189.48,-82150.42,-54686.383,422.37976,673.2144,661.63617,16.764772,-15.685349,18.996126,-12.651775,4.8275304,-11.982796
0.0065,-71125.23,-90560.375,-59172.227,422.37976,673.2144,661.63617,14.49524,-16.19197,16.686638,-12.591683,3.357138,-14.087335
0.007,-75599.67,-96091.82,-61972.453,422.37976,673.2144,661.63617,13.052895,-16.552744,15.193325,-12.575741,2.3363023,-15.371826
0.0075,-82404.77,-104330.17,-66413.72,422.37976,673.2144,661.63617,11.024252,-17.138636,13.057163,-12.630373,0.77177405,-17.141418
0.008,-87165.19,-109857.11,-69826.91,422.37976,673.2144,661.63617,9.77494,-17.570332,11.713139,-12.741238,-0.28212816,-18.23133
0.0085,-94859.664,-118457.5,-75959.63,422.37976,673.2144,661.63617,8.069101,-18.307594,9.823873,-13.047091,-1.874302,-19.766155
0.009,-100469.02,-124592.945,-80806.63,422.37976,673.2144,661.63617,7.044302,-18.8773,8.649618,-13.354137,-2.9538229,-20.734863
0.0095,-109766.7,-134648.25,-89222.57,422.37976,673.2144,661.63617,5.664812,-19.874561,7.0126534,-13.978527,-4.6165705,-22.136217
0.01,-116628.29,-141968.64,-95582.234,422.37976,673.2144,661.63617,4.840099,-20.643673,6.0003242,-14.506694,-5.772798,-23.041689
0.0105,-127944.375,-153776.36,-106246.18,422.37976,673.2144,661.63617,3.7290413,-21.954567,4.5904922,-15.467301,-7.594237,-24.350437
0.011,-136104.12,-162079.08,-114112.016,422.37976,673.2144,661.63617,3.065747,-22.929237,3.7146564,-16.217056,-8.877764,-25.181679
0.0115,-149048.75,-174985.47,-126994.23,422.37976,296.63235,661.63617,2.1775763,-24.526506,2.4815645,-17.493912,-10.908289,-26.33976
0.012,-158011.33,-183798.42,-136202.95,422.37976,296.63235,661.63617,1.6531763,-25.67043,1.7056525,-18.43554,-12.328753,-27.043186
0.0125,-171747.05,-197198.28,-150628.03,422.37976,296.63235,661.63617,0.96554244,-27.485006,0.60514766,-19.960821,-14.552738,-27.972355
0.013,-181007.75,-206173.62,-160431.75,422.37976,296.63235,661.63617,0.572036,-28.745787,-0.085220754,-21.037811,-16.085556,-28.497223
0.0135,-194912.25,-219524.9,-175086.9,422.37976,296.63235,661.63617,0.07838078,-30.687138,-1.0464334,-22.71787,-18.440693,-29.124592
0.014,-204088.97,-228236.14,-184703.22,422.37976,296.63235,661.63617,-0.18285051,-31.999485,-1.6286031,-23.867321,-20.030195,-29.431328
0.0145,-217527.05,-240839.27,-198820.2,422.37976,296.63235,661.63617,-0.46140796,-33.96832,-2.395394,-25.618685,-22.410526,-29.723701
0.015,-226172.89,-248850.3,-208020.92,422.37976,296.63235,661.63617,-0.5624603,-35.268867,-2.8235917,-26.796831,-23.983007,-29.814997
0.0155,-238594.2,-260210.58,-221519.16,422.37976,296.63235,269.39133,-0.56894535,-37.185368,-3.321508,-28.571875,-26.30487,-29.812567
0.016,-246511.11,-267346.84,-230325.33,422.37976,296.63235,269.39133,-0.46318945,-38.437912,-3.546061,-29.758423,-27.819479,-29.736258
0.0165,-257922.89,-277461.56,-243274.69,422.37976,296.63235,269.39133,-0.12343087,-40.276066,-3.7076488,-31.54332,-30.04124,-29.522518
0.017,-265265.84,-283870.9,-251782.25,422.37976,296.63235,269.39133,0.23274139,-41.47988,-3.6917157,-32.739803,-31.493032,-29.327053
0.0175,-275973.75,-293090.88,-264479.47,422.37976,296.63235,269.39133,0.9676984,-43.260525,-3.476517,-34.552696,-33.64377,-28.975536
0.018,-282961.03,-299023.84,-272976.84,422.37976,296.63235,269.39133,1.5933144,-44.437008,-3.2065055,-35.778797,-35.068104,-28.700136
0.0185,-293291.97,-307654.22,-285855.72,422.37976,296.63235,269.39133,2.7261775,-46.197453,-2.6220617,-37.650368,-37.21167,-28.228634
0.019,-300119.9,-313253.84,-294536.1,422.37976,296.63235,269.39133,3.6062837,-47.37087,-2.1193986,-38.922337,-38.654617,-27.866077
0.0195,-310297.66,-321432.9,-307612.2,422.37976,296.63235,269.39133,5.0964565,-49.138428,-1.2122746,-40.86498,-40.837166,-27.234621
0.02,-317004.94,-326727.56,-316277.6,422.37976,296.63235,269.39133,6.1914716,-50.320683,-0.51579195,-42.17915,-42.310303,-26.740627
0.0205,-326823.66,-334362.34,-329020.25,422.37976,296.63235,269.39133,7.957301,-52.09204,0.64952415,-44.166405,-44.54096,-25.867813
0.021,-333096.66,-339165.72,-337233.28,422.37976,296.63235,269.39133,9.204674,-53.265232,1.4985425,-45.493355,-46.031784,-25.184301
0.0215,-341884.34,-345744.47,-348934.0,422.37976,296.63235,269.39133,11.158969,-54.993114,2.8688505,-47.4686,-48.24787,-23.992977
0.022,-347209.25,-349584.75,-356210.75,422.37976,296.63235,269.39133,12.506872,-56.11121,3.8422997,-48.764057,-49.697178,-23.082502
0.0225,-354210.44,-354326.28,-366165.4,422.37976,296.63235,269.39133,14.586578,-57.71486,5.387508,-50.656277,-51.795277,-21.550049
0.023,-358131.53,-356718.8,-372080.06,422.37976,296.63235,269.39133,16.008854,-58.721424,6.472798,-51.87446,-53.132427,-20.422743
0.0235,-362773.12,-359065.97,-379778.2,422.37976,296.63235,269.39133,18.193474,-60.12054,8.182678,-53.623184,-55.02187,-18.587893
0.024,-365011.72,-359781.47,-384107.22,510.01028,296.63235,269.39133,19.685457,-60.972904,9.376835,-54.73103,-56.199257,-17.2878
0.0245,-367095.28,-359593.5,-389411.88,510.01028,296.63235,269.39133,21.977554,-62.120895,11.248283,-56.29871,-57.838345,-15.230906
0.025,-367669.22,-358659.16,-392186.75,510.01028,296.63235,269.39133,23.541363,-62.794853,12.5471525,-57.27862,-58.84565,-13.796353
0.0255,-367394.22,-356130.44,-395276.25,510.01028,296.63235,269.39133,25.939697,-63.671257,14.565932,-58.64713,-60.23046,-11.555721
0.026,-366511.16,-353754.94,-396654.62,510.01028,296.63235,269.39133,27.568928,-64.166565,15.953063,-59.48996,-61.06583,-10.006801
0.0265,-364229.88,-349265.7,-397717.4,510.01028,296.63235,269.39133,30.046398,-64.77791,18.082956,-60.64447,-62.182384,-7.6013365
0.027,-362104.22,-345702.66,-397746.0,510.01028,296.63235,269.39133,31.712906,-65.09772,19.52722,-61.336067,-62.83021,-5.9466314
0.0275,-358030.94,-339536.94,-396726.66,510.01028,296.63235,269.39133,34.215473,-65.441635,21.71865,-62.2457,-63.642796,-3.3950603
0.028,-354699.94,-334865.94,-395301.28,510.01028,296.63235,269.39133,35.877716,-65.57836,23.190617,-62.75989,-64.069336,-1.6573803
0.0285,-348724.47,-326954.97,-391959.94,510.01028,296.63235,269.39133,38.34496,-65.631584,25.407534,-63.378983,-64.52981,0.98826015
0.029,-344043.8,-321020.62,-388877.47,510.01028,296.63235,269.39133,39.964535,-65.55887,26.889389,-63.682186,-64.71031,2.7613442
0.0295,-335893.0,-311019.28,-382898.16,510.01028,703.67645,269.39133,42.351433,-65.27385,29.118338,-63.96125,-64.79879,5.413383
0.03,-329651.06,-303576.66,-377983.7,510.01028,703.67645,269.39133,43.914757,-64.95899,30.610764,-64.02663,-64.7386,7.163466
0.0305,-319010.56,-291216.22,-369227.06,510.01028,703.67645,269.39133,46.223083,-64.2917,32.86485,-63.941128,-64.48796,9.732017
0.031,-311053.97,-282185.22,-362498.97,510.01028,703.67645,269.39133,47.740257,-63.71649,34.38127,-63.763336,-64.22444,11.401233
0.0315,-297878.6,-267518.4,-351177.4,510.01028,703.67645,269.39133,49.992954,-62.66147,36.680233,-63.32366,-63.709126,13.831676
0.032,-288336.12,-257058.64,-342887.78,510.01028,703.67645,269.39133,51.483284,-61.83787,38.22928,-62.92304,-63.298607,15.406454
0.0325,-273052.44,-240502.8,-329489.66,510.01028,703.67645,269.39133,53.7081,-60.43944,40.573784,-62.176373,-62.596195,17.70834
0.033,-262335.47,-228996.78,-320000.22,510.01028,703.67645,765.1779,55.182693,-59.40996,42.14565,-61.59093,-62.070732,19.208513
0.0335,-245669.84,-211233.08,-305061.47,510.01028,703.67645,765.1779,57.37488,-57.74407,44.50192,-60.597206,-61.20815,21.429338
0.034,-234266.02,-199161.83,-294698.6,510.01028,703.67645,765.1779,58.813816,-56.563007,46.060703,-59.865116,-60.572266,22.890606
0.0345,-216841.73,-180862.12,-278625.94,510.01028,703.67645,765.1779,60.91937,-54.71349,48.36015,-58.67112,-59.517403,25.06379
0.035,-205052.39,-168593.61,-267577.03,510.01028,703.67645,765.1779,62.273533,-53.433712,49.85465,-57.81308,-58.738144,26.500303
0.0355,-187121.45,-150141.31,-250492.42,510.01028,703.67645,765.1779,64.20547,-51.449398,52.018482,-56.43215,-57.435005,28.618114
0.036,-174990.5,-137802.8,-238736.73,510.01028,703.67645,765.1779,65.41217,-50.084187,53.399525,-55.44654,-56.474205,29.995178
0.0365,-156477.47,-119186.42,-220495.67,510.01028,703.67645,765.1779,67.08499,-47.969364,55.368263,-53.865017,-54.888134,31.984585
0.037,-143883.44,-106661.35,-207902.31,510.01028,703.67645,765.1779,68.10219,-46.508575,56.60836,-52.73809,-53.742092,33.24289
0.0375,-124544.42,-87630.984,-188346.9,510.01028,703.67645,765.1779,69.471825,-44.23468,58.358856,-50.933968,-51.902294,35.012627
0.038,-111327.91,-74752.44,-174882.34,510.01028,703.67645,765.1779,70.284,-42.660656,59.454235,-49.65478,-50.608654,36.104427
0.0385,-91032.14,-55143.53,-154106.23,510.01028,703.67645,765.1779,71.35848,-40.209797,60.994934,-47.62717,-48.59547,37.60851
0.039,-77236.18,-41906.016,-139928.44,510.01028,703.67645,765.1779,71.98522,-38.51931,61.956898,-46.209015,-47.219154,38.526695
0.0395,-56278.164,-21905.377,-118311.234,510.01028,703.67645,765.1779,72.803474,-35.913166,63.3056,-43.996494,-45.116478,39.78714
0.04,-42237.02,-8572.899,-103769.83,510.01028,703.67645,765.1779,73.273636,-34.138165,64.14183,-42.47534,-43.687515,40.55798
0.0405,-21292.334,11219.326,-81956.58,510.01028,703.67645,765.1779,73.86955,-31.44462,65.29776,-40.144623,-41.494484,41.621334
0.041,-7511.9307,24150.742,-67526.734,877.75226,703.67645,765.1779,74.19521,-29.641218,65.99774,-38.57011,-39.99338,42.268158
0.0415,12673.9795,42951.44,-46226.02,877.75226,703.67645,765.1779,74.568306,-26.951838,66.92971,-36.194336,-37.676456,43.144707
0.042,25708.85,54989.76,-32331.516,877.75226,703.67645,765.1779,74.73287,-25.18203,67.46412,-34.60887,-36.080467,43.65576
0.0425,44502.664,72181.164,-12033.023,877.75226,703.67645,765.1779,74.838,-22.578762,68.119316,-32.23661,-33.611027,44.296368
0.043,56482.8,83022.375,1109.8956,877.75226,703.67645,765.1779,74.8022,-20.884134,68.45076,-30.661526,-31.91442,44.627697
0.0435,73627.984,98342.63,20234.695,877.75226,703.67645,765.1779,74.57781,-18.403812,68.77858,-28.30856,-29.313038,44.956074
0.044,84524.73,107953.86,32608.826,877.75226,703.67645,765.1779,74.30702,-16.793848,68.88035,-26.744638,-27.54878,45.06086
0.0445,100125.06,121541.234,50647.516,877.75226,703.67645,765.1779,73.71347,-14.433175,68.85568,-24.401213,-24.88791,45.028854
0.045,110072.36,130102.27,62349.902,877.75226,703.67645,765.1779,73.19424,-12.891041,68.724365,-22.839098,-23.12226,44.88008
0.0455,124387.33,142275.14,79438.9,877.75226,834.52997,765.1779,72.238754,-10.618978,68.3632,-20.494537,-20.513163,44.471954
0.046,133546.03,149970.78,90517.55,877.75226,834.52997,765.1779,71.49095,-9.128189,68.02014,-18.93225,-18.811214,44.086723
0.0465,146728.92,160896.53,106617.05,877.75226,834.52997,765.1779,70.22428,-6.930717,67.365395,-16.596006,-16.334042,43.358425
0.047,155123.28,167744.67,116959.48,877.75226,834.52997,765.1779,69.29475,-5.4927707,66.843254,-15.05023,-14.735218,42.785694
0.0475,167036.58,177278.17,131786.33,877.75226,834.52997,765.1779,67.79165,-3.3899176,65.943115,-12.7644005,-12.41381,41.80917
0.048,174464.17,183076.23,141142.08,877.75226,834.52997,765.1779,66.72856,-2.033586,65.270355,-11.271282,-10.9151325,41.090282
0.0485,184701.56,190814.72,154260.88,877.75226,834.52997,765.1779,65.054634,-0.085138254,64.157745,-9.09362,-8.731017,39.907894
0.049,190839.34,195266.31,162333.88,877.75226,834.52997,765.1779,63.89033,1.1446792,63.348278,-7.6922193,-7.31843,39.050743
0.0495,198895.3,200781.31,173355.31,877.75226,834.52997,829.48663,62.074368,2.8689332,62.03246,-5.679134,-5.2549644,37.661743
0.05,203450.23,203636.77,179941.75,877.75226,834.52997,829.48663,60.81693,3.9301617,61.08658,-4.402576,-3.92244,36.6597
0.0505,209027.3,206651.94,188647.25,877.75226,834.52997,829.48663,58.856903,5.378035,59.564037,-2.5926347,-1.9943659,35.0385
0.051,211910.89,207819.25,193666.34,877.75226,834.52997,829.48663,57.50069,6.2466736,58.47914,-1.4581722,-0.7656978,33.875595
0.0515,215027.08,208359.14,200040.11,877.75226,834.52997,829.48663,55.39063,7.4027987,56.7498,0.13468301,0.97103685,32.012047
0.052,216335.28,207957.45,203541.84,877.75226,834.52997,829.48663,53.935017,8.079751,55.53212,1.124254,2.0483546,30.694695
0.0525,217227.5,206304.52,207720.94,877.75226,834.52997,829.48663,51.685997,8.959936,53.61623,2.5016937,3.52874,28.62586
0.053,217157.48,204553.16,209815.23,877.75226,834.52997,829.48663,50.147797,9.461463,52.28495,3.349638,4.4168606,27.197924
0.0535,212897.42,194015.0,209661.16,877.75226,834.52997,829.48663,49.437553,9.55677,50.948895,4.214979,6.7494354,25.10638
0.054,210424.64,189481.31,209490.61,877.75226,834.52997,829.48663,47.87107,9.884161,49.52603,4.872564,7.3358517,23.735394
0.0545,204886.14,181692.73,206935.75,877.75226,834.52997,829.48663,45.76355,10.121848,47.525105,5.6311145,8.310994,21.592913
0.055,199826.05,175839.08,203407.1,877.75226,834.52997,829.48663,44.466827,10.114119,46.25701,5.971185,8.977088,20.092655
0.0555,190253.98,165820.42,195343.08,877.75226,834.52997,829.48663,42.615814,9.871351,44.41248,6.2213764,9.9187155,17.72889
0.056,182683.06,158114.98,188341.42,877.75226,834.52997,829.48663,41.417507,9.565322,43.197025,6.2178845,10.478157,16.088173
0.0565,169773.22,144779.88,175983.27,877.75226,834.52997,829.48663,39.64228,8.897069,41.357788,5.9807854,11.168851,13.532752
0.057,160235.34,134716.06,166851.05,877.75226,834.52997,829.48663,38.461487,8.317758,40.10582,5.6901603,11.514723,11.778512
0.0575,144707.95,118144.25,152256.39,591.5967,834.52997,829.48663,36.675125,7.258425,38.179626,5.097694,11.825978,9.085918
0.058,133673.7,106387.44,142083.38,591.5967,834.52997,829.48663,35.46664,6.4400587,36.86522,4.619257,11.886361,7.2711987
0.0585,116394.94,88203.14,126298.445,591.5967,834.52997,829.48663,33.62904,5.078107,34.859238,3.8023248,11.74452,4.5602903
0.059,104582.34,75967.37,115477.54,591.5967,834.52997,829.48663,32.394085,4.103255,33.50636,3.2014318,11.50295,2.7880354
0.0595,86725.82,57725.67,98901.68,591.5967,834.52997,829.48663,30.55453,2.5741253,31.468039,2.227556,10.950248,0.20891038
0.06,74848.9,45710.285,87697.07,591.5967,834.52997,829.48663,29.351711,1.5229667,30.112703,1.5350834,10.468628,-1.4403161
0.0605,57175.938,27911.393,70788.63,591.5967,834.52997,829.48663,27.61361,-0.08998311,28.106213,0.43809274,9.603132,-3.809787
0.061,45486.67,16175.192,59499.32,591.5967,834.52997,829.48663,26.509731,-1.1885005,26.8001,-0.33085874,8.94032,-5.3173385
0.0615,28031.951,-1278.9043,42542.77,591.5967,834.52997,829.48663,24.95212,-2.8705785,24.912153,-1.5444095,7.828638,-7.4709845
0.062,16406.861,-12825.538,31174.277,591.5967,834.52997,829.48663,23.986666,-4.019273,23.711573,-2.3972497,7.0128016,-8.836283
0.0625,-1083.7162,-30034.602,13909.763,591.5967,401.16943,829.48663,22.655546,-5.7868814,22.010723,-3.7504282,5.682253,-10.7814
0.063,-12802.81,-41459.51,2204.8735,591.5967,401.16943,829.48663,21.850012,-6.9984207,20.947546,-4.706412,4.725817,-12.008593
0.0635,-30498.688,-58565.535,-15676.063,591.5967,401.16943,829.48663,20.767906,-8.875516,19.46,-6.2271194,3.1821616,-13.747009
0.064,-42388.49,-69969.96,-27790.871,591.5967,401.16943,829.48663,20.130022,-10.16926,18.538149,-7.2993655,2.0762691,-14.835895
0.0645,-60342.938,-87071.836,-46182.098,591.5967,401.16943,829.48663,19.291098,-12.176977,17.256563,-8.992036,0.3065289,-16.353788
0.065,-72351.98,-98426.2,-58538.684,591.5967,401.16943,829.48663,18.80575,-13.557948,16.467646,-10.174145,-0.9517346,-17.277122
0.0655,-90300.47,-115262.15,-77144.93,591.5967,401.16943,829.48663,18.178093,-15.686048,15.378275,-12.022445,-2.9436264,-18.520079
0.066,-102131.63,-126259.59,-89556.4,591.5967,401.16943,829.48663,17.821693,-17.134438,14.711487,-13.300655,-4.336765,-19.238886
0.0665,-119526.086,-142253.33,-108087.18,591.5967,401.16943,351.36926,17.375982,-19.33534,13.795048,-15.277343,-6.5039372,-20.14187
0.067,-130813.84,-152498.92,-120301.766,591.5967,401.16943,351.36926,17.133434,-20.81126,13.238371,-16.626925,-7.990902,-20.619894
0.0675,-147178.06,-167144.77,-138242.8,591.5967,401.16943,351.36926,16.852743,-23.021557,12.482574,-18.684332,-10.259181,-21.147005
0.068,-157655.92,-176389.31,-149849.42,591.5967,401.16943,351.36926,16.71912,-24.48433,12.031598,-20.068653,-11.784562,-21.368364
0.0685,-172629.19,-189439.8,-166591.12,591.5967,401.16943,351.36926,16.600721,-26.64671,11.436356,-22.14779,-14.070724,-21.508018
0.069,-182064.25,-197570.47,-177253.86,591.5967,401.16943,351.36926,16.57492,-28.059137,11.094225,-23.525322,-15.584256,-21.47551
0.0695,-195327.12,-208868.19,-192433.95,591.5967,401.16943,351.36926,16.618654,-30.11873,10.667606,-25.561968,-17.810661,-21.23946
0.07,-203550.08,-215770.38,-201978.17,591.5967,401.16943,351.36926,16.70366,-31.445387,10.444445,-26.890385,-19.261316,-20.96612
0.0705,-214927.7,-225142.27,-215368.19,591.5967,401.16943,351.36926,16.919413,-33.350525,10.209447,-28.825094,-21.357145,-20.393917
0.071,-221862.34,-230720.27,-223642.83,591.5967,401.16943,351.36926,17.124954,-34.557808,10.124162,-30.06837,-22.699202,-19.912222
0.0715,-231261.44,-238072.8,-235028.39,591.5967,401.16943,351.36926,17.530087,-36.26453,10.113173,-31.852474,-24.614513,-19.05904
0.072,-236840.23,-242295.2,-241920.22,591.5967,401.16943,351.36926,17.869478,-37.326706,10.190419,-32.983612,-25.823524,-18.41452
0.0725,-244152.06,-247597.19,-251224.42,591.5967,401.16943,351.36926,18.48929,-38.802094,10.444015,-34.59044,-27.534285,-17.345741
0.073,-248325.84,-250438.83,-256765.86,591.5967,401.16943,351.36926,18.98048,-39.704838,10.709836,-35.60318,-28.605892,-16.580976
0.0735,-253561.67,-253674.73,-264160.06,591.5967,401.16943,351.36926,19.842085,-40.937847,11.260381,-37.037563,-30.115086,-15.361507
0.074,-256404.64,-255172.22,-268525.8,591.5967,401.16943,351.36926,20.502699,-41.681877,11.730533,-37.941452,-31.061625,-14.5106
0.0745,-259760.14,-256508.81,-274311.8,591.5967,401.16943,351.36926,21.626137,-42.69039,12.588756,-39.228844,-32.402813,-13.1768465
0.075,-261440.4,-256852.1,-277707.47,402.96512,401.16943,351.36926,22.459616,-43.300007,13.258607,-40.047363,-33.250637,-12.252068
