Time, Timer, measurement1.Three-phase Meter1.VLn_RMS, measurement2.Three-phase Meter2.VLn_RMS, measurement3.Three-phase Meter3.VLn_RMS
0.25, 0.3061999976634979, 438.3470764160156, 434.9844970703125, 434.5929870605469
0.5, 0.5630000233650208, 643.6453857421875, 638.7571411132812, 638.1893920898438
0.75, 0.8086000084877014, 488.5323181152344, 484.8033447265625, 484.36895751953125
1.0, 1.062600016593933, 256.60552978515625, 254.62083435058594, 254.38916015625
1.25, 1.3042000532150269, 448.537841796875, 445.1065673828125, 444.70635986328125
1.5, 1.5585999488830566, 603.44384765625, 598.8561401367188, 598.3238525390625
1.75, 1.8286000490188599, 481.9945373535156, 478.3802795410156, 477.9115295410156
2.0, 2.0534000396728516, 304.16571044921875, 301.86376953125, 301.549560546875
2.25, 2.3043999671936035, 458.3689270019531, 455.01629638671875, 454.5156555175781
2.5, 2.5552000999450684, 572.8728637695312, 568.7240600585938, 568.092529296875
2.75, 2.803999900817871, 479.6385192871094, 476.174560546875, 475.63006591796875
3.0, 3.0553998947143555, 360.07794189453125, 357.4194030761719, 357.0220031738281
3.25, 3.3043999671936035, 464.4372863769531, 461.0536804199219, 460.53741455078125
3.5, 3.553999900817871, 542.9609985351562, 539.0514526367188, 538.43701171875
3.75, 3.8036000728607178, 475.8275451660156, 472.39385986328125, 471.84991455078125
4.0, 4.0553998947143555, 398.212646484375, 395.2879638671875, 394.84796142578125
4.25, 4.304599761962891, 828.8026733398438, 822.5752563476562, 821.8470458984375
4.5, 4.557000160217285, 510.9307861328125, 507.2419128417969, 506.6632995605469
4.75, 4.804999828338623, 231.3358917236328, 230.03778076171875, 229.76858520507812
5.0, 5.056399822235107, 434.2296142578125, 431.0605773925781, 430.57769775390625
5.25, 5.303800106048584, 728.7871704101562, 723.4736938476562, 722.7017822265625
5.5, 5.552999973297119, 496.1204528808594, 492.5360107421875, 491.974365234375
5.75, 5.8043999671936035, 232.0096893310547, 230.25184631347656, 229.99681091308594
6.0, 6.055799961090088, 448.2043762207031, 444.9454040527344, 444.4421691894531
6.25, 6.304999828338623, 641.1369018554688, 636.5128784179688, 635.8048095703125
6.5, 6.554999828338623, 486.1914367675781, 482.685302734375, 482.1293640136719
6.75, 6.8053998947143555, 319.147216796875, 316.8028564453125, 316.4385070800781
7.0, 7.053599834442139, 458.4905090332031, 455.1427307128906, 454.6391906738281
7.25, 7.305200099945068, 576.3255004882812, 572.1524047851562, 571.7048950195312
7.5, 7.557000160217285, 478.7068176269531, 475.2555236816406, 474.7298278808594
7.75, 7.804800033569336, 390.5079040527344, 374.60565185546875, 387.212158203125
8.0, 8.055000305175781, 465.1046447753906, 461.7205505371094, 461.19366455078125
8.25, 8.302399635314941, 535.4151000976562, 531.3078002929688, 530.9403076171875
8.5, 8.555800437927246, 445.3294677734375, 440.5205993652344, 441.56658935546875
8.75, 8.804800033569336, 422.33740234375, 419.4316711425781, 418.78338623046875
9.0, 9.05620002746582, 804.6312255859375, 797.71435546875, 797.9033813476562
9.25, 9.304800033569336, 505.99542236328125, 502.0688781738281, 501.7671813964844
9.5, 9.554400444030762, 191.9704132080078, 192.5203857421875, 190.3213348388672
9.75, 9.803000450134277, 442.3176574707031, 439.3278503417969, 438.6053771972656
10.0, 10.054400444030762, 687.8719482421875, 681.0535278320312, 682.1487426757812
10.25, 10.304400444030762, 490.9571228027344, 487.198974609375, 486.85394287109375
10.5, 10.555800437927246, 315.3080749511719, 290.7403259277344, 312.6058654785156
10.75, 10.805000305175781, 454.74688720703125, 451.64666748046875, 450.9309387207031
11.0, 11.056599617004395, 586.2479248046875, 581.01123046875, 581.3649291992188
11.25, 11.30459976196289, 481.4258728027344, 477.816650390625, 477.39849853515625
11.5, 11.562800407409668, 374.6774597167969, 372.9152526855469, 371.5121765136719
11.75, 11.8056001663208, 462.6426086425781, 459.4121398925781, 458.7644958496094
12.0, 12.05620002746582, 541.077880859375, 536.5567016601562, 536.56884765625
12.25, 12.304200172424316, 475.4134521484375, 471.9018859863281, 471.43890380859375
12.5, 12.553600311279297, 412.3537292480469, 409.98077392578125, 408.88348388671875
12.75, 12.805999755859375, 865.3546752929688, 855.1680908203125, 858.6499633789062
13.0, 13.055800437927246, 512.7064819335938, 508.6109924316406, 508.4281005859375
13.25, 13.303000450134277, 153.128173828125, 153.08106994628906, 152.09451293945312
13.5, 13.554200172424316, 436.0511474609375, 433.19189453125, 432.3825378417969
13.75, 13.80459976196289, 690.705322265625, 721.349609375, 684.9483032226562
14.0, 14.056400299072266, 495.0044860839844, 491.23236083984375, 490.86651611328125
14.25, 14.30459976196289, 289.3497619628906, 288.3613586425781, 287.1554870605469
14.5, 14.555800437927246, 450.8822021484375, 447.7406311035156, 447.1306457519531
14.75, 14.805399894714355, 606.3533325195312, 601.2598876953125, 601.0648803710938
15.0, 15.053400039672852, 483.8622741699219, 480.2769470214844, 479.7867126464844
15.25, 15.303400039672852, 358.0389709472656, 355.9976501464844, 355.20623779296875
15.5, 15.5556001663208, 460.15435791015625, 456.8884582519531, 456.3246765136719
15.75, 15.804400444030762, 559.6043701171875, 555.2378540039062, 554.9334716796875
16.0, 16.058399200439453, 476.0357360839844, 472.55816650390625, 472.05621337890625
16.25, 16.306400299072266, 396.47528076171875, 393.72467041015625, 393.27471923828125
16.5, 16.556800842285156, 656.8541259765625, 656.5280151367188, 655.511962890625
16.75, 16.80459976196289, 528.7195434570312, 524.6848754882812, 524.0900268554688
17.0, 17.054399490356445, 256.0368347167969, 246.34161376953125, 246.08880615234375
17.25, 17.303800582885742, 425.70440673828125, 422.7578125, 422.20361328125
17.5, 17.55579948425293, 771.9068603515625, 765.29638671875, 764.9522705078125
17.75, 17.805999755859375, 504.87322998046875, 501.0959167480469, 500.59002685546875
18.0, 18.056400299072266, 244.7751007080078, 243.92001342773438, 242.98667907714844
18.25, 18.30459976196289, 444.4367370605469, 441.35980224609375, 440.7593994140625
18.5, 18.55500030517578, 654.5228881835938, 648.8442993164062, 648.7676391601562
18.75, 18.80419921875, 489.964111328125, 486.30047607421875, 485.8272705078125
19.0, 19.055200576782227, 328.1180419921875, 326.672119140625, 325.5732421875
19.25, 19.30340003967285, 455.9942626953125, 452.8017578125, 452.1998596191406
19.5, 19.553600311279297, 584.1069946289062, 578.9011840820312, 579.0448608398438
19.75, 19.80660057067871, 478.6089172363281, 475.0384216308594, 474.5880432128906
20.0, 20.054399490356445, 382.55706787109375, 380.6748046875, 379.4822082519531
20.25, 20.306400299072266, 464.8849792480469, 461.6029357910156, 460.9996032714844
20.5, 20.55459976196289, 539.6575317382812, 535.0256958007812, 535.0322265625
20.75, 20.802600860595703, 398.1681823730469, 395.1783142089844, 394.44573974609375
21.0, 21.055400848388672, 416.8690490722656, 414.4797058105469, 413.4532775878906
21.25, 21.304800033569336, 805.9683227539062, 798.0706176757812, 798.9351196289062
21.5, 21.554000854492188, 511.9644775390625, 507.7969970703125, 507.60760498046875
21.75, 21.80620002746582, 207.2897186279297, 208.13534545898438, 205.7899627685547
22.0, 22.055999755859375, 438.7308654785156, 435.9706115722656, 435.1079406738281
22.25, 22.30459976196289, 688.8868408203125, 681.3552856445312, 682.7930908203125
22.5, 22.553800582885742, 494.44696044921875, 490.5356140136719, 490.2665100097656
22.75, 22.804000854492188, 302.15545654296875, 301.8533020019531, 299.5680847167969
23.0, 23.055999755859375, 455.5391845703125, 452.4403381347656, 451.71563720703125
23.25, 23.302799224853516, 605.2042236328125, 599.4108276367188, 600.1534423828125
23.5, 23.555400848388672, 481.0218811035156, 477.3941345214844, 477.0027770996094
23.75, 23.80500030517578, 366.1637268066406, 364.1863708496094, 363.0601806640625
24.0, 24.05579948425293, 463.0322570800781, 459.75640869140625, 459.1551818847656
24.25, 24.304800033569336, 552.6665649414062, 548.2392578125, 548.0614013671875
24.5, 24.555200576782227, 475.013916015625, 471.5293273925781, 471.0432434082031
24.75, 24.80340003967285, 406.9193420410156, 404.1723327636719, 403.4894714355469
25.0, 25.055999755859375, 864.7784423828125, 857.4522094726562, 858.0867309570312
25.25, 25.30419921875, 519.6575317382812, 515.8184814453125, 515.3223876953125
25.5, 25.55660057067871, 160.5543670654297, 159.64942932128906, 159.15869140625
25.75, 25.805200576782227, 432.539306640625, 429.4471435546875, 428.90130615234375
26.0, 26.055200576782227, 727.8132934570312, 722.5082397460938, 721.739501953125
26.25, 26.30620002746582, 494.5889587402344, 491.0138854980469, 490.4548034667969
26.5, 26.55500030517578, 275.3503723144531, 273.31072998046875, 272.9956359863281
26.75, 26.805999755859375, 452.21392822265625, 448.9130554199219, 448.4158630371094
27.0, 27.055200576782227, 627.9227294921875, 623.37548828125, 622.6968383789062
27.25, 27.305200576782227, 483.5675964355469, 480.0743713378906, 479.5254821777344
27.5, 27.55699920654297, 428.5815124511719, 447.0051574707031, 424.99127197265625
27.75, 27.803199768066406, 468.7146301269531, 482.644287109375, 464.8545837402344
28.0, 28.055400848388672, 470.57049560546875, 477.49774169921875, 466.6883850097656
28.25, 28.302600860595703, 473.1700134277344, 474.9471740722656, 469.2582092285156
28.5, 28.55579948425293, 616.14111328125, 582.2052612304688, 611.0556030273438
28.75, 28.804399490356445, 489.6517028808594, 463.65777587890625, 485.5445556640625
29.0, 29.055400848388672, 483.58856201171875, 468.2488098144531, 479.5393981933594
29.25, 29.305999755859375, 478.8338317871094, 470.6226806640625, 474.8266906738281
29.5, 29.553800582885742, 475.9107360839844, 471.7622985839844, 471.9282531738281
29.75, 29.80579948425293, 418.7091979980469, 450.54180908203125, 415.2203674316406
30.0, 30.055400848388672, 461.47906494140625, 481.2782897949219, 457.6595153808594
30.25, 30.30620002746582, 467.45208740234375, 477.892822265625, 463.5726623535156
30.5, 30.55459976196289, 471.9813232421875, 476.70404052734375, 468.05523681640625
30.75, 30.80459976196289, 573.8634033203125, 542.5137939453125, 569.072998046875
31.0, 31.05660057067871, 488.54949951171875, 467.4320983886719, 484.4228820800781
31.25, 31.305599212646484, 482.3752746582031, 471.6844482421875, 478.31329345703125
31.5, 31.55660057067871, 477.6217956542969, 473.6268615722656, 473.6048583984375
31.75, 31.80340003967285, 474.81158447265625, 474.4024658203125, 470.8231201171875
32.0, 32.055198669433594, 454.4367370605469, 484.4349670410156, 450.6637878417969
32.25, 32.302799224853516, 463.5225830078125, 481.0521545410156, 459.6766662597656
32.5, 32.555198669433594, 469.1978454589844, 478.37298583984375, 465.2921447753906
32.75, 32.805999755859375, 473.001953125, 477.5042724609375, 469.0537109375
33.0, 33.05540084838867, 517.095703125, 485.5874938964844, 512.7381591796875
33.25, 33.30339813232422, 486.9420471191406, 469.1185302734375, 482.8357849121094
33.5, 33.555599212646484, 481.1468505859375, 472.5955505371094, 477.09686279296875
33.75, 33.80619812011719, 476.7674560546875, 474.0151062011719, 472.76776123046875
34.0, 34.05500030517578, 288.8739929199219, 311.5310974121094, 286.3756103515625
34.25, 34.30339813232422, 458.8641357421875, 484.3404235839844, 455.06512451171875
34.5, 34.55419921875, 465.42852783203125, 479.8592224121094, 461.5687255859375
34.75, 34.80440139770508, 470.54736328125, 477.8870849609375, 466.6322021484375
35.0, 35.056400299072266, 473.6991271972656, 477.31732177734375, 469.75579833984375
35.25, 35.30459976196289, 496.7499084472656, 468.10809326171875, 492.566650390625
35.5, 35.55500030517578, 485.5513610839844, 469.8980712890625, 481.4529113769531
35.75, 35.802799224853516, 479.8568420410156, 472.9980163574219, 475.8228759765625
36.0, 36.05440139770508, 476.0128479003906, 474.04608154296875, 472.0156555175781
36.25, 36.305198669433594, 410.2920227050781, 443.9335021972656, 406.8494873046875
36.5, 36.55459976196289, 460.82977294921875, 482.9409484863281, 457.0126647949219
36.75, 36.8047981262207, 466.8374938964844, 479.1327209472656, 462.9562072753906
37.0, 37.05619812011719, 471.4984436035156, 477.62255859375, 467.5654296875
37.25, 37.30500030517578, 728.394287109375, 709.6231689453125, 722.2536010742188
37.5, 37.555599212646484, 491.5602722167969, 466.5287170410156, 487.40924072265625
37.75, 37.80540084838867, 484.0859680175781, 470.93585205078125, 480.00994873046875
38.0, 38.05619812011719, 478.7701110839844, 473.359375, 474.74151611328125
38.25, 38.3026008605957, 475.4996032714844, 474.2206115722656, 471.5141296386719
38.5, 38.55619812011719, 446.9761962890625, 479.51678466796875, 443.30218505859375
38.75, 38.80379867553711, 462.2860412597656, 481.8719482421875, 458.4561767578125
39.0, 39.056400299072266, 468.3002014160156, 478.5877380371094, 464.4122009277344
39.25, 39.30580139160156, 472.4337463378906, 477.4530334472656, 468.5001220703125
39.5, 39.55440139770508, 569.5988159179688, 538.1680297851562, 564.8353271484375
39.75, 39.802398681640625, 488.977294921875, 467.4681091308594, 484.844482421875
40.0, 40.05699920654297, 482.25433349609375, 471.9375915527344, 478.1971740722656
40.25, 40.302799224853516, 477.51226806640625, 473.7209777832031, 473.5049133300781
40.5, 40.55419921875, 471.2157897949219, 498.2335510253906, 467.36724853515625
40.75, 40.805198669433594, 456.55535888671875, 484.8247375488281, 452.7778015136719
41.0, 41.05379867553711, 464.23651123046875, 480.4914245605469, 460.3894348144531
41.25, 41.302799224853516, 469.73040771484375, 478.09869384765625, 465.81512451171875
41.5, 41.555999755859375, 473.1334533691406, 477.32501220703125, 469.18682861328125
41.75, 41.80500030517578, 513.549072265625, 481.7707214355469, 511.72760009765625
42.0, 42.055599212646484, 481.23809814453125, 463.67169189453125, 478.92724609375
42.25, 42.303199768066406, 409.9684753417969, 444.1325988769531, 386.1154479980469
42.5, 42.552799224853516, 469.4164733886719, 491.4226379394531, 455.2386779785156
42.75, 42.8036003112793, 473.58197021484375, 483.1763610839844, 467.610107421875
43.0, 43.055198669433594, 786.5560302734375, 764.2646484375, 800.59423828125
43.25, 43.30540084838867, 494.02984619140625, 461.6786193847656, 507.1431884765625
43.5, 43.55400085449219, 482.8326416015625, 469.35467529296875, 484.88043212890625
43.75, 43.80419921875, 460.84686279296875, 490.552734375, 431.2609558105469
44.0, 44.05580139160156, 461.9799499511719, 494.4590148925781, 443.6475524902344
44.25, 44.30500030517578, 470.9151916503906, 486.59954833984375, 463.0096740722656
44.5, 44.555999755859375, 474.78094482421875, 480.9717712402344, 472.17669677734375
44.75, 44.80440139770508, 612.526611328125, 574.6845092773438, 631.38671875
45.0, 45.055198669433594, 486.89019775390625, 461.4621276855469, 497.34869384765625
45.25, 45.303001403808594, 481.2064514160156, 470.88427734375, 483.2925720214844
45.5, 45.55419921875, 351.3130187988281, 386.204833984375, 332.2052917480469
45.75, 45.8026008605957, 466.046142578125, 493.9704284667969, 452.28985595703125
46.0, 46.05619812011719, 471.7441101074219, 483.99530029296875, 467.4017028808594
46.25, 46.30419921875, 475.31219482421875, 479.9306945800781, 474.8363342285156
46.5, 46.55580139160156, 503.8603820800781, 466.86151123046875, 522.8638305664062
46.75, 46.80540084838867, 483.0161437988281, 466.1419677734375, 489.66473388671875
47.0, 47.05379867553711, 478.9861755371094, 472.9401550292969, 479.9218444824219
47.25, 47.305599212646484, 442.03265380859375, 480.6863098144531, 421.6990661621094
47.5, 47.55659866333008, 468.7465515136719, 489.6787414550781, 459.906005859375
47.75, 47.80379867553711, 473.1003723144531, 481.5877990722656, 471.1995849609375
48.0, 48.05419921875, 655.7440185546875, 623.6281127929688, 676.9090576171875
48.25, 48.30339813232422, 487.0528564453125, 459.9093322753906, 499.9656982421875
48.5, 48.56399917602539, 480.8792419433594, 469.9797668457031, 484.3185119628906
48.75, 48.803199768066406, 183.919921875, 198.2794647216797, 174.54501342773438
49.0, 49.05459976196289, 463.1915283203125, 494.2676086425781, 447.9671630859375
49.25, 49.301998138427734, 470.67767333984375, 485.2822265625, 465.45562744140625
49.5, 49.55580139160156, 474.617431640625, 479.9484558105469, 474.14031982421875
49.75, 49.80459976196289, 516.614013671875, 477.4658203125, 537.9905395507812
50.0, 50.055198669433594, 483.75030517578125, 464.1255798339844, 492.0007019042969
50.25, 50.30220031738281, 479.61822509765625, 471.8728942871094, 481.3512268066406
50.5, 50.55440139770508, 402.11248779296875, 440.2818298339844, 380.3544921875
50.75, 50.802398681640625, 467.3105163574219, 492.1031188964844, 456.03875732421875
51.0, 51.05440139770508, 472.321533203125, 482.5489501953125, 469.4590759277344
51.25, 51.30339813232422, 788.37451171875, 767.7611694335938, 800.7997436523438
51.5, 51.55440139770508, 490.90838623046875, 459.27716064453125, 506.63580322265625
51.75, 51.805599212646484, 481.8971862792969, 468.32830810546875, 486.7237243652344
52.0, 52.05739974975586, 478.2081298828125, 473.4638671875, 478.56878662109375
52.25, 52.3047981262207, 453.6543273925781, 489.8294372558594, 434.939697265625
52.5, 52.55580139160156, 469.59088134765625, 487.88323974609375, 462.3031921386719
52.75, 52.80540084838867, 473.7996826171875, 480.79534912109375, 472.6137390136719
53.0, 53.055599212646484, 556.250732421875, 517.5255126953125, 579.6310424804688
53.25, 53.305999755859375, 485.1402587890625, 461.92132568359375, 495.64141845703125
53.5, 53.555198669433594, 480.4869384765625, 470.8441467285156, 483.2864074707031
53.75, 53.803001403808594, 303.8197326660156, 328.5044250488281, 286.3602294921875
54.0, 54.05459976196289, 464.7448425292969, 494.1973571777344, 450.6519470214844
54.25, 54.303199768066406, 471.4329833984375, 484.167236328125, 467.335693359375
54.5, 54.55400085449219, 475.0666809082031, 479.8584289550781, 474.9144592285156
54.75, 54.80419921875, 498.591552734375, 462.9689636230469, 517.1817016601562
55.0, 55.0547981262207, 482.8570251464844, 466.51513671875, 489.3030090332031
55.25, 55.3047981262207, 478.95599365234375, 472.8271179199219, 480.0123291015625
55.5, 55.55500030517578, 435.6954650878906, 474.17657470703125, 414.9326477050781
55.75, 55.80419921875, 468.63201904296875, 490.2159729003906, 459.4565734863281
56.0, 56.05440139770508, 473.13983154296875, 481.714599609375, 471.2419128417969
56.25, 56.30440139770508, 645.3760375976562, 614.9149169921875, 667.1384887695312
56.5, 56.55540084838867, 487.1476745605469, 459.9646911621094, 500.066162109375
56.75, 56.80419921875, 481.36065673828125, 469.523193359375, 485.3215637207031
57.0, 57.05500030517578, 323.3793029785156, 382.0440368652344, 321.96649169921875
57.25, 57.30339813232422, 460.0617370605469, 493.5397033691406, 443.3367919921875
57.5, 57.553001403808594, 470.63250732421875, 485.8762512207031, 465.1748962402344
57.75, 57.80500030517578, 474.3933410644531, 480.1643371582031, 474.1719055175781
58.0, 58.05500030517578, 515.197021484375, 476.5712890625, 536.537841796875
58.25, 58.30379867553711, 483.8938293457031, 464.4038391113281, 492.1786193847656
58.5, 58.5547981262207, 479.7227478027344, 471.9994812011719, 481.5648498535156
58.75, 58.8047981262207, 387.0313720703125, 423.8333435058594, 365.5400085449219
59.0, 59.05379867553711, 466.9578857421875, 492.8173522949219, 455.1743469238281
59.25, 59.305599212646484, 472.2508850097656, 482.9785461425781, 469.2496337890625
59.5, 59.555999755859375, 790.5413208007812, 769.6849365234375, 802.4494018554688
59.75, 59.80220031738281, 490.6531677246094, 459.3768310546875, 506.30584716796875
60.0, 60.05459976196289, 482.2288513183594, 467.9013671875, 487.5887756347656
