Time, Timer, measurement1.Three-phase Meter1.VLn_RMS, measurement2.Three-phase Meter2.VLn_RMS, measurement3.Three-phase Meter3.VLn_RMS
0.25, 0.30480000376701355, 438.3355407714844, 434.9783630371094, 434.5867919921875
0.5, 0.5511999726295471, 643.6661376953125, 638.777099609375, 638.2092895507812
0.75, 0.8062000274658203, 491.6427307128906, 487.8907470703125, 487.4537658691406
1.0, 1.0537999868392944, 256.6064758300781, 254.6227569580078, 254.39109802246094
1.25, 1.3006000518798828, 448.5391845703125, 445.1061096191406, 444.70587158203125
1.5, 1.5532000064849854, 603.4488525390625, 598.8629150390625, 598.3305053710938
1.75, 1.8026000261306763, 486.2210388183594, 482.5468444824219, 482.09246826171875
2.0, 2.0546000003814697, 304.1657409667969, 301.8641357421875, 301.5499267578125
2.25, 2.302000045776367, 455.2647399902344, 451.92730712890625, 451.43463134765625
2.5, 2.5513999462127686, 572.8704833984375, 568.7230224609375, 568.0914916992188
2.75, 2.802000045776367, 479.64642333984375, 476.18023681640625, 475.6357116699219
3.0, 3.0515999794006348, 360.0770568847656, 357.41949462890625, 357.0220947265625
3.25, 3.302999973297119, 464.43475341796875, 461.0542907714844, 460.53802490234375
3.5, 3.5511999130249023, 542.9645385742188, 539.052978515625, 538.4385375976562
3.75, 3.803999900817871, 475.84112548828125, 472.4045104980469, 471.8614196777344
4.0, 4.059999942779541, 408.8692626953125, 405.87750244140625, 405.42340087890625
4.25, 4.301000118255615, 828.7926635742188, 822.5740966796875, 821.8458862304688
4.5, 4.551599979400635, 517.81787109375, 514.0846557617188, 513.49658203125
4.75, 4.803400039672852, 231.33810424804688, 230.0403594970703, 229.77114868164062
5.0, 5.053599834442139, 427.5614318847656, 424.43902587890625, 423.9649658203125
5.25, 5.301799774169922, 728.7623901367188, 723.4509887695312, 722.6790771484375
5.5, 5.552999973297119, 496.1227722167969, 492.53851318359375, 491.97686767578125
5.75, 5.801799774169922, 232.00924682617188, 230.25234985351562, 229.997314453125
6.0, 6.051400184631348, 443.64007568359375, 440.4146728515625, 439.9175720214844
6.25, 6.3024001121521, 641.4033203125, 636.77978515625, 636.0711669921875
6.5, 6.553800106048584, 486.2160339355469, 482.7081604003906, 482.15216064453125
6.75, 6.804800033569336, 318.87457275390625, 316.80035400390625, 316.4360046386719
7.0, 7.0553998947143555, 458.4728698730469, 455.1555480957031, 454.6519775390625
7.25, 7.301000118255615, 576.6875610351562, 572.1361083984375, 571.6883544921875
7.5, 7.552199840545654, 478.75006103515625, 475.2525939941406, 474.72686767578125
7.75, 7.803199768066406, 377.0452880859375, 374.4465637207031, 374.0265808105469
8.0, 8.053799629211426, 465.0732421875, 461.6920166015625, 461.1838684082031
8.25, 8.303199768066406, 526.0367431640625, 522.2286987304688, 521.6416625976562
8.5, 8.553999900817871, 445.3269958496094, 442.04217529296875, 441.5638732910156
8.75, 8.801799774169922, 413.9505310058594, 410.92132568359375, 410.463623046875
9.0, 9.052000045776367, 804.644775390625, 798.6859741210938, 797.9168701171875
9.25, 9.300999641418457, 505.9867248535156, 502.331787109375, 501.75860595703125
9.5, 9.551199913024902, 191.9674835205078, 190.50416564941406, 190.31838989257812
9.75, 9.801799774169922, 442.31640625, 439.09991455078125, 438.60504150390625
10.0, 10.052200317382812, 687.0525512695312, 682.0659790039062, 681.3361206054688
10.25, 10.303400039672852, 490.8667907714844, 487.3227844238281, 486.76416015625
10.5, 10.551600456237793, 291.38470458984375, 289.1876220703125, 288.8659973144531
10.75, 10.800999641418457, 454.8189392089844, 451.5043640136719, 451.00091552734375
11.0, 11.053199768066406, 604.6327514648438, 600.2632446289062, 599.5994873046875
11.25, 11.302000045776367, 481.3760681152344, 477.896240234375, 477.3498229980469
11.5, 11.551799774169922, 359.3850402832031, 356.73785400390625, 356.3352966308594
11.75, 11.800600051879883, 462.6908264160156, 459.32904052734375, 458.8120422363281
12.0, 12.053999900817871, 540.9465942382812, 537.05224609375, 536.43896484375
12.25, 12.302200317382812, 475.4034729003906, 471.9723205566406, 471.428466796875
12.5, 12.554400444030762, 412.468017578125, 409.4551086425781, 408.9960632324219
12.75, 12.80459976196289, 864.68310546875, 858.6799926757812, 857.99072265625
13.0, 13.054200172424316, 512.6399536132812, 508.9437255859375, 508.3603515625
13.25, 13.301400184631348, 153.2388916015625, 152.43812561035156, 152.1953125
13.5, 13.552399635314941, 436.1099548339844, 432.91876220703125, 432.4419250488281
13.75, 13.80459976196289, 727.9716186523438, 722.6470947265625, 721.88427734375
14.0, 14.053000450134277, 494.9606628417969, 491.3852233886719, 490.8238220214844
14.25, 14.302399635314941, 262.0782470703125, 260.10296630859375, 259.8076477050781
14.5, 14.554400444030762, 450.9288635253906, 447.629638671875, 447.1378479003906
14.75, 14.802000045776367, 606.345458984375, 601.9515380859375, 601.2897338867188
15.0, 15.053799629211426, 483.86212158203125, 480.3668518066406, 479.81634521484375
15.25, 15.302800178527832, 358.2398986816406, 355.6223449707031, 355.21417236328125
15.5, 15.554200172424316, 460.1858215332031, 456.8394470214844, 456.3267517089844
15.75, 15.800800323486328, 559.6409301757812, 555.5980224609375, 554.972900390625
16.0, 16.054000854492188, 477.66900634765625, 474.219482421875, 473.6746520996094
16.25, 16.300800323486328, 396.6031494140625, 393.71490478515625, 393.26507568359375
16.5, 16.55299949645996, 465.2439270019531, 461.8609313964844, 461.34283447265625
16.75, 16.803800582885742, 528.715576171875, 524.8977661132812, 524.3029174804688
17.0, 17.05299949645996, 256.04833984375, 254.6590576171875, 254.41815185546875
17.25, 17.304399490356445, 425.70928955078125, 422.604248046875, 422.1264343261719
17.5, 17.556400299072266, 771.886474609375, 766.2006225585938, 765.3975830078125
17.75, 17.803600311279297, 504.8773193359375, 501.2300109863281, 500.6585998535156
18.0, 18.054399490356445, 244.77249145507812, 242.88681030273438, 242.63833618164062
18.25, 18.300800323486328, 444.9770812988281, 441.75360107421875, 441.2516784667969
18.5, 18.555999755859375, 642.2671508789062, 637.64208984375, 636.931640625
18.75, 18.801799774169922, 488.8761901855469, 485.350341796875, 484.792724609375
19.0, 19.052799224853516, 329.31591796875, 326.8986511230469, 326.5244140625
19.25, 19.30120086669922, 456.6367492675781, 453.30419921875, 452.8033447265625
19.5, 19.551599502563477, 575.4009399414062, 571.2551879882812, 570.6119995117188
19.75, 19.803600311279297, 478.2032165527344, 474.7481994628906, 474.20672607421875
20.0, 20.05340003967285, 384.4042663574219, 381.5915832519531, 381.1630859375
20.25, 20.302000045776367, 465.7383728027344, 462.34552001953125, 461.8311767578125
20.5, 20.553800582885742, 533.8185424804688, 529.960205078125, 529.363525390625
20.75, 20.802200317382812, 418.2245788574219, 415.3052673339844, 414.7877197265625
21.0, 21.05340003967285, 418.8208923339844, 415.7596435546875, 415.2967529296875
21.25, 21.302400588989258, 791.6107788085938, 785.8649291992188, 785.0999145507812
21.5, 21.554000854492188, 507.9584045410156, 504.2875671386719, 503.716064453125
21.75, 21.80120086669922, 217.54754638671875, 215.85003662109375, 215.61117553710938
22.0, 22.051599502563477, 445.3863525390625, 442.1954345703125, 441.69927978515625
22.25, 22.300800323486328, 666.1857299804688, 661.0758666992188, 660.3456420898438
22.5, 22.55139923095703, 488.4591979980469, 484.9051208496094, 484.3463134765625
22.75, 22.80139923095703, 310.3212890625, 308.2880859375, 307.9356689453125
23.0, 23.052400588989258, 456.98699951171875, 453.68341064453125, 453.1815490722656
23.25, 23.302400588989258, 590.6023559570312, 586.1611938476562, 585.4921875
23.5, 23.552000045776367, 479.8063659667969, 476.3276672363281, 475.7740783691406
23.75, 23.801599502563477, 371.90570068359375, 369.35308837890625, 368.9431457519531
24.0, 24.051799774169922, 464.2508544921875, 460.8757629394531, 460.3716125488281
24.25, 24.302400588989258, 532.6834106445312, 528.7229614257812, 528.1232299804688
24.5, 24.55299949645996, 451.8966064453125, 449.0230407714844, 448.6005859375
24.75, 24.800800323486328, 419.7919006347656, 416.80963134765625, 416.353271484375
25.0, 25.051599502563477, 811.2835693359375, 805.0226440429688, 804.2749633789062
25.25, 25.30299949645996, 507.2644958496094, 503.4567565917969, 502.8861083984375
25.5, 25.552799224853516, 184.1076202392578, 184.39759826660156, 184.1886749267578
25.75, 25.802000045776367, 441.28704833984375, 438.19647216796875, 437.7028503417969
26.0, 26.053600311279297, 661.6943969726562, 656.609619140625, 655.8882446289062
26.25, 26.30120086669922, 491.3268127441406, 487.7322692871094, 487.1762390136719
26.5, 26.553800582885742, 313.6927795410156, 311.342529296875, 310.9974365234375
26.75, 26.803600311279297, 454.6220703125, 451.31121826171875, 450.8078308105469
27.0, 27.052799224853516, 587.2993774414062, 583.0797729492188, 582.419677734375
27.25, 27.30419921875, 481.6114196777344, 478.1351318359375, 477.586181640625
27.5, 27.551799774169922, 374.3555603027344, 371.6205749511719, 371.19818115234375
27.75, 27.802200317382812, 462.72906494140625, 459.3536376953125, 458.8448486328125
28.0, 28.05139923095703, 541.291015625, 537.3898315429688, 536.7791137695312
28.25, 28.30139923095703, 475.6596374511719, 472.22607421875, 471.6835021972656
28.5, 28.55299949645996, 412.3223876953125, 409.4154052734375, 408.9594421386719
28.75, 28.800800323486328, 806.9832763671875, 800.71630859375, 799.944091796875
29.0, 29.054000854492188, 512.735107421875, 508.95574951171875, 508.3747253417969
29.25, 29.302799224853516, 189.40609741210938, 188.50628662109375, 188.31875610351562
29.5, 29.55139923095703, 436.46826171875, 433.3548583984375, 432.8714599609375
29.75, 29.801599502563477, 689.7418212890625, 684.3469848632812, 683.6279907226562
30.0, 30.054399490356445, 491.20880126953125, 487.6162109375, 487.06072998046875
30.25, 30.303600311279297, 289.5660095214844, 287.50201416015625, 287.28411865234375
30.5, 30.55340003967285, 454.61578369140625, 451.21826171875, 450.78759765625
30.75, 30.800800323486328, 604.2742309570312, 599.4683227539062, 598.9287719726562
31.0, 31.052000045776367, 481.2750549316406, 477.5785827636719, 477.14971923828125
31.25, 31.302799224853516, 437.3316345214844, 456.3840026855469, 433.7684631347656
31.5, 31.552000045776367, 468.66290283203125, 481.41815185546875, 464.7273864746094
31.75, 31.80299949645996, 470.8757019042969, 476.2404479980469, 466.9140625
32.0, 32.05160140991211, 664.9356689453125, 656.1785278320312, 662.0316162109375
32.25, 32.302799224853516, 494.2670593261719, 462.78460693359375, 490.06781005859375
32.5, 32.5536003112793, 484.54376220703125, 466.3119201660156, 480.4503173828125
32.75, 32.801998138427734, 479.038330078125, 468.9942932128906, 474.9942932128906
33.0, 33.05339813232422, 474.8541259765625, 470.45404052734375, 470.8440856933594
33.25, 33.30459976196289, 472.1325378417969, 471.3848571777344, 468.1435546875
33.5, 33.5536003112793, 350.3146057128906, 379.36883544921875, 347.303466796875
33.75, 33.801998138427734, 456.540283203125, 481.3554992675781, 452.71868896484375
34.0, 34.05139923095703, 463.3831481933594, 477.9616394042969, 459.48980712890625
34.25, 34.303199768066406, 468.375, 476.9081115722656, 464.4249267578125
34.5, 34.55220031738281, 508.9199523925781, 482.5458679199219, 504.59112548828125
34.75, 34.8036003112793, 484.1487121582031, 471.71075439453125, 480.0174560546875
35.0, 35.0536003112793, 478.5481262207031, 475.2254943847656, 474.48028564453125
35.25, 35.30099868774414, 474.3666076660156, 476.533203125, 470.3471984863281
35.5, 35.55339813232422, 237.0963592529297, 272.015380859375, 235.29547119140625
35.75, 35.803001403808594, 455.3771667480469, 486.2135009765625, 451.5775451660156
36.0, 36.05220031738281, 462.9847412109375, 481.742919921875, 459.1157531738281
36.25, 36.303001403808594, 468.66766357421875, 479.58807373046875, 464.7417297363281
36.5, 36.552398681640625, 472.27825927734375, 478.78759765625, 468.3176574707031
36.75, 36.8036003112793, 495.8973693847656, 470.344482421875, 491.6790466308594
37.0, 37.0536003112793, 483.8538513183594, 471.80511474609375, 479.7489929199219
37.25, 37.30179977416992, 478.43096923828125, 474.21221923828125, 474.3871154785156
37.5, 37.55080032348633, 474.56915283203125, 475.0741271972656, 470.5673522949219
37.75, 37.80160140991211, 398.3954162597656, 432.2172546386719, 395.0129699707031
38.0, 38.052398681640625, 459.1685485839844, 483.39581298828125, 455.3528137207031
38.25, 38.30120086669922, 465.5436706542969, 479.5989074707031, 461.65972900390625
38.5, 38.55139923095703, 470.4264831542969, 478.1335754394531, 466.49005126953125
38.75, 38.80179977416992, 657.0067749023438, 636.5914306640625, 651.5335693359375
39.0, 39.05139923095703, 488.53631591796875, 468.0015869140625, 484.382568359375
39.25, 39.30080032348633, 481.8241882324219, 472.2624816894531, 477.7436218261719
39.5, 39.55099868774414, 476.7329406738281, 474.1440734863281, 472.707763671875
39.75, 39.80099868774414, 473.7317199707031, 474.80279541015625, 469.7381286621094
40.0, 40.05419921875, 445.6007080078125, 479.6991882324219, 441.88140869140625
40.25, 40.30039978027344, 461.4385986328125, 481.6505432128906, 457.5939025878906
40.5, 40.55179977416992, 467.2590026855469, 478.91204833984375, 463.3533630371094
40.75, 40.80139923095703, 471.4996032714844, 477.9408874511719, 467.5501708984375
41.0, 41.05339813232422, 534.4560546875, 506.9041748046875, 531.2908935546875
41.25, 41.303199768066406, 408.1264953613281, 434.26409912109375, 380.6443176269531
41.5, 41.553001403808594, 467.97283935546875, 487.8173522949219, 449.8810729980469
41.75, 41.802799224853516, 518.5952758789062, 486.1632080078125, 533.276611328125
42.0, 42.05440139770508, 476.7750549316406, 459.5561828613281, 483.2727966308594
42.25, 42.30099868774414, 336.4980163574219, 364.0789489746094, 313.3190002441406
42.5, 42.55120086669922, 461.00640869140625, 489.0252380371094, 450.28369140625
42.75, 42.80220031738281, 465.8285217285156, 479.89093017578125, 463.4052734375
43.0, 43.05379867553711, 785.3687133789062, 770.686279296875, 788.365234375
43.25, 43.302799224853516, 485.8864440917969, 454.57781982421875, 507.0263977050781
43.5, 43.552799224853516, 476.82568359375, 463.136474609375, 487.3476257324219
43.75, 43.80160140991211, 473.4815979003906, 468.975341796875, 479.51531982421875
44.0, 44.05160140991211, 402.0345764160156, 442.2906494140625, 383.8746337890625
44.25, 44.30160140991211, 462.5577392578125, 488.7093505859375, 455.7575988769531
44.5, 44.552398681640625, 467.4962463378906, 478.4532470703125, 468.8045654296875
44.75, 44.8026008605957, 795.8508911132812, 781.6104736328125, 802.7385864257812
45.0, 45.052398681640625, 488.6172790527344, 453.63525390625, 510.29876708984375
45.25, 45.3047981262207, 478.5207824707031, 461.60406494140625, 488.65478515625
45.5, 45.55160140991211, 475.06524658203125, 467.6598815917969, 480.1059265136719
45.75, 45.8036003112793, 431.2657165527344, 469.3246765136719, 413.7955017089844
46.0, 46.05379867553711, 465.0878601074219, 486.0990905761719, 458.6982116699219
46.25, 46.301998138427734, 469.44305419921875, 476.9670715332031, 470.20281982421875
46.5, 46.55080032348633, 533.9552001953125, 527.351806640625, 559.3834228515625
46.75, 46.80059814453125, 491.6452941894531, 454.07421875, 512.70849609375
47.0, 47.0526008605957, 479.8139343261719, 460.1971130371094, 489.7827453613281
47.25, 47.30379867553711, 475.7764587402344, 467.35980224609375, 480.0408020019531
47.5, 47.555599212646484, 441.6519775390625, 478.06231689453125, 424.7278137207031
47.75, 47.80080032348633, 465.9002380371094, 485.0932312011719, 459.86810302734375
48.0, 48.05099868774414, 469.758544921875, 477.0620422363281, 470.1877746582031
48.25, 48.30120086669922, 641.6707763671875, 630.548583984375, 677.5784912109375
48.5, 48.5536003112793, 491.0060119628906, 454.00372314453125, 511.6715393066406
48.75, 48.80459976196289, 479.7517395019531, 460.7534484863281, 489.55291748046875
49.0, 49.05179977416992, 475.6593017578125, 467.78521728515625, 479.9432067871094
49.25, 49.30179977416992, 436.1806335449219, 473.5914611816406, 418.9781494140625
49.5, 49.55440139770508, 465.88616943359375, 485.1515808105469, 460.188720703125
49.75, 49.803199768066406, 469.73260498046875, 477.2123107910156, 470.42645263671875
50.0, 50.053001403808594, 812.7438354492188, 795.9056396484375, 807.07861328125
50.25, 50.30080032348633, 490.2309875488281, 453.909912109375, 510.8749694824219
50.5, 50.553199768066406, 479.31048583984375, 462.4153137207031, 488.1322937011719
50.75, 50.80039978027344, 475.515869140625, 468.783447265625, 479.3761291503906
51.0, 51.05080032348633, 451.6275939941406, 487.0969543457031, 435.99029541015625
51.25, 51.30059814453125, 466.1612854003906, 484.39337158203125, 461.29541015625
51.5, 51.553001403808594, 469.9462890625, 476.68048095703125, 471.1922607421875
51.75, 51.80139923095703, 784.1702270507812, 762.3906860351562, 797.5732421875
52.0, 52.05139923095703, 488.1032409667969, 453.2286071777344, 508.09881591796875
52.25, 52.303001403808594, 478.6622314453125, 462.14703369140625, 487.6933288574219
52.5, 52.55080032348633, 474.9576110839844, 468.01373291015625, 479.3335266113281
52.75, 52.803001403808594, 448.263671875, 484.24560546875, 432.590087890625
53.0, 53.052398681640625, 465.63714599609375, 484.230712890625, 460.8001403808594
53.25, 53.30120086669922, 469.5807189941406, 476.22906494140625, 471.0431213378906
53.5, 53.55459976196289, 772.4849243164062, 745.4824829101562, 795.6968383789062
53.75, 53.80099868774414, 486.61968994140625, 452.39532470703125, 506.0997314453125
54.0, 54.05160140991211, 478.3558044433594, 462.0326843261719, 488.0015563964844
54.25, 54.30160140991211, 474.7733154296875, 467.71343994140625, 479.157958984375
54.5, 54.55400085449219, 447.1108093261719, 483.1925354003906, 431.5624694824219
54.75, 54.8026008605957, 465.5325927734375, 484.1242370605469, 460.664794921875
55.0, 55.051998138427734, 469.5088806152344, 476.04046630859375, 471.0021057128906
55.25, 55.30039978027344, 783.9589233398438, 762.102294921875, 797.337890625
55.5, 55.55419921875, 486.20391845703125, 452.17535400390625, 505.4432678222656
55.75, 55.80459976196289, 478.59832763671875, 461.43243408203125, 487.86376953125
56.0, 56.05459976196289, 474.7289123535156, 467.64447021484375, 479.1065979003906
56.25, 56.301998138427734, 442.9110107421875, 479.7084655761719, 427.1123962402344
56.5, 56.553001403808594, 465.6022644042969, 483.861083984375, 460.9483642578125
56.75, 56.80139923095703, 469.32989501953125, 476.2355041503906, 470.6768493652344
57.0, 57.053199768066406, 781.5303955078125, 757.1121826171875, 796.99072265625
57.25, 57.30459976196289, 485.8104248046875, 452.10736083984375, 504.7768249511719
57.5, 57.5536003112793, 478.5530700683594, 461.6031799316406, 487.7168884277344
57.75, 57.8036003112793, 474.6946716308594, 467.7073059082031, 479.05450439453125
58.0, 58.052799224853516, 441.5140686035156, 478.6465148925781, 425.7547607421875
58.25, 58.30139923095703, 465.5283203125, 484.0379943847656, 460.7879638671875
58.5, 58.55099868774414, 469.0868835449219, 476.1943359375, 470.1782531738281
58.75, 58.80099868774414, 797.9349975585938, 779.328369140625, 795.4605102539062
59.0, 59.053199768066406, 489.0557556152344, 452.7945556640625, 509.3671569824219
59.25, 59.30400085449219, 478.9242858886719, 461.1324157714844, 488.3226623535156
59.5, 59.56039810180664, 475.09136962890625, 467.5377197265625, 479.497802734375
59.75, 59.80099868774414, 432.43701171875, 470.29156494140625, 416.059814453125
60.0, 60.05120086669922, 465.003173828125, 485.72674560546875, 458.7782897949219
60.25, 60.30039978027344, 469.1711120605469, 476.5546875, 470.1421813964844
