Time, Timer, measurement1.Three-phase Meter1.VLn_RMS, measurement2.Three-phase Meter2.VLn_RMS, measurement3.Three-phase Meter3.VLn_RMS
0.25, 0.30799999833106995, 471.2977294921875, 467.6990966796875, 467.27044677734375
0.5, 0.5595999956130981, 470.50640869140625, 466.9147644042969, 466.48681640625
0.75, 0.8041999936103821, 471.19134521484375, 467.5795593261719, 467.1459655761719
1.0, 1.0654000043869019, 468.8453369140625, 465.25677490234375, 464.82464599609375
1.25, 1.3043999671936035, 468.9295654296875, 465.35260009765625, 464.92047119140625
1.5, 1.5570000410079956, 468.74029541015625, 465.1678466796875, 464.7389831542969
1.75, 1.809399962425232, 469.6617431640625, 466.11212158203125, 465.6602783203125
2.0, 2.0604000091552734, 469.0252990722656, 465.5060119628906, 465.01953125
2.25, 2.308000087738037, 469.359619140625, 465.9020690917969, 465.3815002441406
2.5, 2.5583999156951904, 470.2754211425781, 466.885009765625, 466.3317565917969
2.75, 2.8203999996185303, 469.2503356933594, 465.8721008300781, 465.3240661621094
3.0, 3.0787999629974365, 468.1249694824219, 464.6990661621094, 464.1725158691406
3.25, 3.3287999629974365, 469.2135925292969, 465.7443542480469, 465.22821044921875
3.5, 3.579200029373169, 469.28106689453125, 465.86773681640625, 465.3273010253906
3.75, 3.8203999996185303, 469.3240661621094, 465.957275390625, 465.39996337890625
4.0, 4.079599857330322, 469.1447448730469, 465.75140380859375, 465.2099914550781
4.25, 4.336999893188477, 469.3302001953125, 465.9598693847656, 465.4083557128906
4.5, 4.590799808502197, 470.3202209472656, 466.9266662597656, 466.3831787109375
4.75, 4.838200092315674, 467.9219665527344, 464.43670654296875, 463.93853759765625
5.0, 5.095200061798096, 469.32366943359375, 465.8739318847656, 465.3511657714844
5.25, 5.34060001373291, 470.34698486328125, 466.96856689453125, 466.4192810058594
5.5, 5.585599899291992, 469.34222412109375, 465.9696350097656, 465.4183044433594
5.75, 5.84060001373291, 469.1504821777344, 465.74261474609375, 465.2062072753906
6.0, 6.092400074005127, 469.1141357421875, 465.6400451660156, 465.1366882324219
6.25, 6.347799777984619, 469.3602294921875, 465.9392395019531, 465.4009094238281
6.5, 6.6031999588012695, 469.3040771484375, 465.9384765625, 465.379638671875
6.75, 6.856599807739258, 469.1925048828125, 465.7903747558594, 465.24884033203125
7.0, 7.110599994659424, 469.42913818359375, 466.0608215332031, 465.5102233886719
7.25, 7.3572001457214355, 469.22796630859375, 465.8356018066406, 465.29559326171875
7.5, 7.6072001457214355, 467.2026672363281, 463.74566650390625, 463.2403259277344
7.75, 7.852399826049805, 469.34326171875, 465.8836669921875, 465.3661804199219
8.0, 8.111000061035156, 467.5516052246094, 464.1678771972656, 463.6275329589844
8.25, 8.359199523925781, 469.2701721191406, 465.902587890625, 465.3509521484375
8.5, 8.60219955444336, 469.07672119140625, 465.68206787109375, 465.1443176269531
8.75, 8.860199928283691, 469.31658935546875, 465.8233947753906, 465.3227844238281
9.0, 9.1048002243042, 469.4151611328125, 465.9950866699219, 465.4588623046875
9.25, 9.35319995880127, 469.4421691894531, 466.0723876953125, 465.5145263671875
9.5, 9.608400344848633, 469.3498840332031, 465.9662780761719, 465.42132568359375
9.75, 9.853799819946289, 467.4921875, 464.03192138671875, 463.5226135253906
10.0, 10.102399826049805, 469.2981262207031, 465.8409118652344, 465.3183898925781
10.25, 10.35319995880127, 468.6322937011719, 465.24041748046875, 464.6949768066406
10.5, 10.611000061035156, 469.4349365234375, 466.0565185546875, 465.5015563964844
10.75, 10.851400375366211, 469.23004150390625, 465.8278503417969, 465.28790283203125
11.0, 11.107399940490723, 469.41754150390625, 466.0528564453125, 465.5036315917969
11.25, 11.353599548339844, 469.34326171875, 465.9532775878906, 465.4137878417969
11.5, 11.608200073242188, 469.0280456542969, 465.52935791015625, 465.02984619140625
11.75, 11.851799964904785, 469.3734436035156, 465.9294738769531, 465.4019775390625
12.0, 12.10219955444336, 470.2015075683594, 466.8357849121094, 466.2806701660156
12.25, 12.355600357055664, 469.29302978515625, 465.9185485839844, 465.3697814941406
12.5, 12.610600471496582, 464.6220703125, 461.2559509277344, 460.73583984375
12.75, 12.857999801635742, 470.9294738769531, 467.5563659667969, 467.00628662109375
13.0, 13.10200023651123, 470.727783203125, 467.3145751953125, 466.7798156738281
13.25, 13.360400199890137, 469.2872009277344, 465.7605895996094, 465.275390625
13.5, 13.602999687194824, 469.348388671875, 465.92437744140625, 465.39007568359375
13.75, 13.859399795532227, 469.31878662109375, 465.95892333984375, 465.40362548828125
14.0, 14.104599952697754, 469.2741394042969, 465.8928527832031, 465.3509826660156
14.25, 14.360199928283691, 467.8758239746094, 464.4019470214844, 463.8970947265625
14.5, 14.601799964904785, 469.3013000488281, 465.84796142578125, 465.3254089355469
14.75, 14.852399826049805, 469.0777282714844, 465.6883544921875, 465.14349365234375
15.0, 15.101799964904785, 469.29730224609375, 465.91925048828125, 465.36676025390625
15.25, 15.360799789428711, 469.1484680175781, 465.7544860839844, 465.2162170410156
15.5, 15.601400375366211, 469.2895202636719, 465.80450439453125, 465.2998962402344
15.75, 15.859600067138672, 469.429443359375, 466.0044860839844, 465.4669189453125
16.0, 16.101999282836914, 469.3235168457031, 465.9602355957031, 465.4009704589844
16.25, 16.351999282836914, 469.1215515136719, 465.7331237792969, 465.1886291503906
16.5, 16.60379981994629, 470.1387023925781, 466.7526550292969, 466.2024841308594
16.75, 16.854000091552734, 469.32647705078125, 465.9393005371094, 465.39617919921875
17.0, 17.104799270629883, 468.7267761230469, 465.28948974609375, 464.7642517089844
17.25, 17.351600646972656, 469.2677001953125, 465.7912902832031, 465.28192138671875
17.5, 17.6018009185791, 469.3443908691406, 465.9255065917969, 465.3861389160156
17.75, 17.85379981994629, 469.3790283203125, 466.00579833984375, 465.4499816894531
18.0, 18.10260009765625, 469.1342468261719, 465.7235107421875, 465.1843566894531
18.25, 18.35300064086914, 469.1083984375, 465.6174011230469, 465.1201171875
18.5, 18.6018009185791, 469.40155029296875, 465.9742431640625, 465.4429931640625
18.75, 18.85260009765625, 470.1064758300781, 466.73760986328125, 466.1813049316406
19.0, 19.10420036315918, 469.3038024902344, 465.9236145019531, 465.37353515625
19.25, 19.35260009765625, 468.5018615722656, 465.05938720703125, 464.5340576171875
19.5, 19.60420036315918, 469.3250427246094, 465.8583984375, 465.343017578125
19.75, 19.851999282836914, 469.3603820800781, 465.9443054199219, 465.4029235839844
20.0, 20.104799270629883, 469.4436950683594, 466.0806884765625, 465.5219421386719
20.25, 20.35460090637207, 469.2381591796875, 465.833740234375, 465.2928466796875
20.5, 20.60140037536621, 469.4408874511719, 466.0828552246094, 465.53009033203125
20.75, 20.853200912475586, 470.8666687011719, 467.498779296875, 466.94781494140625
21.0, 21.10300064086914, 467.0387878417969, 463.5391845703125, 463.0591735839844
21.25, 21.352800369262695, 469.4068908691406, 465.93487548828125, 465.4249572753906
21.5, 21.603200912475586, 470.2829895019531, 466.9163818359375, 466.36553955078125
21.75, 21.854799270629883, 469.38983154296875, 466.0062255859375, 465.454345703125
22.0, 22.10219955444336, 469.1968994140625, 465.7901611328125, 465.2546081542969
22.25, 22.353200912475586, 469.221435546875, 465.7287902832031, 465.22430419921875
22.5, 22.6018009185791, 469.3592529296875, 465.94818115234375, 465.41107177734375
22.75, 22.85300064086914, 469.29345703125, 465.9422607421875, 465.38330078125
23.0, 23.1033992767334, 469.1776123046875, 465.78936767578125, 465.24578857421875
23.25, 23.3518009185791, 469.74322509765625, 466.362548828125, 465.8100280761719
23.5, 23.601200103759766, 469.27947998046875, 465.8921203613281, 465.35125732421875
23.75, 23.852399826049805, 467.2425231933594, 463.7806091308594, 463.25885009765625
24.0, 24.10300064086914, 469.33038330078125, 465.84625244140625, 465.3352355957031
24.25, 24.351999282836914, 468.81707763671875, 465.38067626953125, 464.82537841796875
24.5, 24.60379981994629, 469.3838195800781, 466.0169677734375, 465.4623107910156
24.75, 24.854799270629883, 469.17572021484375, 465.77099609375, 465.23260498046875
25.0, 25.101999282836914, 469.2600402832031, 465.76361083984375, 465.2674560546875
25.25, 25.35099983215332, 469.4425048828125, 466.01324462890625, 465.48016357421875
25.5, 25.6033992767334, 469.66497802734375, 466.2986755371094, 465.7394714355469
25.75, 25.8533992767334, 469.2948303222656, 465.91973876953125, 465.37298583984375
26.0, 26.103200912475586, 467.40472412109375, 463.9530029296875, 463.4345397949219
26.25, 26.35300064086914, 469.2685241699219, 465.8118896484375, 465.2927551269531
26.5, 26.6018009185791, 467.77056884765625, 464.3045349121094, 463.7315673828125
26.75, 26.852800369262695, 469.4549560546875, 466.0980529785156, 465.541259765625
27.0, 27.101999282836914, 469.2303161621094, 465.822265625, 465.27972412109375
27.25, 27.35219955444336, 469.3904113769531, 466.0226135253906, 465.4716491699219
27.5, 27.601999282836914, 469.3635559082031, 465.96630859375, 465.4266662597656
27.75, 27.854000091552734, 468.6657409667969, 465.193603515625, 464.69842529296875
28.0, 28.1018009185791, 469.441162109375, 465.9993896484375, 465.4745788574219
28.25, 28.35260009765625, 470.56689453125, 467.1770324707031, 466.6230773925781
28.5, 28.60460090637207, 469.3279724121094, 465.9451904296875, 465.39447021484375
28.75, 28.85140037536621, 475.88128662109375, 472.61517333984375, 472.1182861328125
29.0, 29.10140037536621, 469.0916748046875, 465.5660095214844, 465.0826110839844
29.25, 29.352399826049805, 469.3623352050781, 465.9308166503906, 465.4105224609375
29.5, 29.602399826049805, 469.3592834472656, 466.0152282714844, 465.45623779296875
29.75, 29.854000091552734, 469.1526184082031, 465.7655029296875, 465.22467041015625
30.0, 30.103200912475586, 469.5401916503906, 466.1607666015625, 465.607421875
30.25, 30.351200103759766, 469.3123779296875, 465.9248352050781, 465.3834228515625
30.5, 30.60300064086914, 467.16705322265625, 463.7051696777344, 463.202392578125
30.75, 30.8518009185791, 469.334228515625, 465.8716125488281, 465.3548889160156
31.0, 31.10420036315918, 467.53326416015625, 464.2344665527344, 463.7293395996094
31.25, 31.354000091552734, 469.40020751953125, 466.0389709472656, 465.4872741699219
31.5, 31.60140037536621, 469.24041748046875, 465.83819580078125, 465.2994689941406
31.75, 31.851600646972656, 469.2342529296875, 465.73175048828125, 465.2294921875
32.0, 32.10219955444336, 469.3961181640625, 465.97088623046875, 465.43450927734375
32.25, 32.35380172729492, 469.4024658203125, 466.04559326171875, 465.4854736328125
32.5, 32.60459899902344, 469.2478942871094, 465.8800048828125, 465.3332824707031
32.75, 32.85200119018555, 467.3909606933594, 463.9541931152344, 463.44683837890625
33.0, 33.10219955444336, 469.3180236816406, 465.859130859375, 465.338623046875
33.25, 33.350799560546875, 467.5191345214844, 464.067138671875, 463.47125244140625
33.5, 33.604000091552734, 469.36572265625, 465.991943359375, 465.4371643066406
33.75, 33.85219955444336, 469.22607421875, 465.8224182128906, 465.2840576171875
34.0, 34.10240173339844, 469.37744140625, 466.00811767578125, 465.4566955566406
34.25, 34.351200103759766, 469.2466125488281, 465.864501953125, 465.3243103027344
34.5, 34.60200119018555, 469.1062927246094, 465.6146240234375, 465.1230163574219
34.75, 34.85380172729492, 469.4877014160156, 466.0525817871094, 465.5250244140625
35.0, 35.10200119018555, 470.1583251953125, 466.788330078125, 466.2283020019531
35.25, 35.35279846191406, 469.3169860839844, 465.947998046875, 465.39971923828125
35.5, 35.60419845581055, 469.39044189453125, 465.8814697265625, 465.2919006347656
35.75, 35.85419845581055, 469.27935791015625, 465.81689453125, 465.3042297363281
36.0, 36.10499954223633, 469.3102722167969, 465.8951721191406, 465.3610534667969
36.25, 36.35380172729492, 469.3881530761719, 466.02862548828125, 465.47125244140625
36.5, 36.60419845581055, 469.1482238769531, 465.75970458984375, 465.21832275390625
36.75, 36.85200119018555, 472.26409912109375, 468.9031677246094, 468.3439636230469
37.0, 37.10279846191406, 470.98968505859375, 467.6060791015625, 467.0570983886719
37.25, 37.35139846801758, 465.4229431152344, 461.9066467285156, 461.4684143066406
37.5, 37.60100173950195, 469.482421875, 465.9871520996094, 465.48541259765625
37.75, 37.85020065307617, 469.501220703125, 466.1282958984375, 465.60186767578125
38.0, 38.101200103759766, 469.2950744628906, 465.92144775390625, 465.3663024902344
38.25, 38.35300064086914, 469.185546875, 465.77880859375, 465.2413024902344
38.5, 38.604000091552734, 469.29302978515625, 465.8117980957031, 465.3070068359375
38.75, 38.850399017333984, 469.43389892578125, 465.99560546875, 465.4604187011719
39.0, 39.104801177978516, 469.34234619140625, 465.9789733886719, 465.4180603027344
39.25, 39.354000091552734, 469.1979064941406, 465.8107604980469, 465.2657775878906
39.5, 39.601600646972656, 467.9343566894531, 464.4732360839844, 463.9768981933594
39.75, 39.85300064086914, 469.385986328125, 465.9381103515625, 465.41680908203125
40.0, 40.10139846801758, 469.82183837890625, 466.4428405761719, 465.9116516113281
40.25, 40.35499954223633, 469.3543701171875, 465.97796630859375, 465.423095703125
40.5, 40.60300064086914, 469.1643371582031, 465.76458740234375, 465.2257080078125
40.75, 40.85240173339844, 469.47637939453125, 466.1158752441406, 465.5659484863281
41.0, 41.10260009765625, 469.34100341796875, 465.9410400390625, 465.4010314941406
41.25, 41.35279846191406, 469.0471496582031, 465.5557556152344, 465.0640869140625
41.5, 41.60319900512695, 366.9075927734375, 363.8280029296875, 325.3258972167969
41.75, 41.85300064086914, 232.76437377929688, 231.7129364013672, 41.57977294921875
42.0, 42.104801177978516, 293.0116271972656, 290.84661865234375, 109.40605926513672
42.25, 42.35139846801758, 78.02722930908203, 79.2655258178711, 190.7262725830078
42.5, 42.60200119018555, 613.4588623046875, 609.9232177734375, 705.00439453125
42.75, 42.854000091552734, 639.9306640625, 634.873291015625, 617.416015625
43.0, 43.10300064086914, 448.77764892578125, 444.990478515625, 327.5113830566406
43.25, 43.351200103759766, 280.81036376953125, 278.14263916015625, 196.21755981445312
43.5, 43.604000091552734, 234.17347717285156, 231.36520385742188, 235.37928771972656
43.75, 43.85260009765625, 675.7583618164062, 670.7471313476562, 751.4365844726562
44.0, 44.10219955444336, 566.1001586914062, 561.5452270507812, 513.1587524414062
44.25, 44.354000091552734, 311.9660339355469, 309.02752685546875, 190.40872192382812
44.5, 44.60459899902344, 568.1508178710938, 563.845947265625, 416.6950988769531
44.75, 44.853599548339844, 300.87542724609375, 299.0547790527344, 136.8082733154297
45.0, 45.10219955444336, 443.9285583496094, 440.6161193847656, 317.1112365722656
45.25, 45.353599548339844, 158.87255859375, 157.4480438232422, 239.82579040527344
45.5, 45.60300064086914, 617.2538452148438, 613.3153076171875, 676.0404052734375
45.75, 45.85319900512695, 482.6336364746094, 479.26861572265625, 510.718994140625
46.0, 46.10319900512695, 529.3548583984375, 525.377685546875, 498.9335021972656
46.25, 46.35100173950195, 520.8446044921875, 516.6592407226562, 433.3374328613281
46.5, 46.60580062866211, 53.535606384277344, 52.739166259765625, 160.2918243408203
46.75, 46.85260009765625, 201.48403930664062, 200.63182067871094, 462.9634704589844
47.0, 47.10260009765625, 657.8199462890625, 652.8302612304688, 687.7379760742188
47.25, 47.35060119628906, 584.8009033203125, 580.567138671875, 588.6771850585938
47.5, 47.60419845581055, 515.9376220703125, 512.1840209960938, 457.69183349609375
47.75, 47.85060119628906, 503.8111267089844, 500.1056823730469, 443.75439453125
48.0, 48.10200119018555, 364.7915344238281, 361.82806396484375, 300.3515930175781
48.25, 48.353599548339844, 205.51809692382812, 205.48587036132812, 233.88162231445312
48.5, 48.603599548339844, 180.64816284179688, 178.72662353515625, 147.92971801757812
48.75, 48.85219955444336, 319.8244934082031, 318.1068420410156, 446.45965576171875
49.0, 49.10200119018555, 598.62646484375, 595.447998046875, 715.0848999023438
49.25, 49.35060119628906, 658.6241455078125, 653.5900268554688, 669.625732421875
49.5, 49.60419845581055, 335.9693298339844, 333.0858459472656, 192.71832275390625
49.75, 49.85100173950195, 307.2417297363281, 305.6842041015625, 238.6634521484375
50.0, 50.10260009765625, 248.3507843017578, 246.31317138671875, 110.1280746459961
50.25, 50.353599548339844, 292.81280517578125, 290.3421325683594, 44.31486892700195
50.5, 50.60380172729492, 297.22491455078125, 294.80029296875, 51.38739776611328
50.75, 50.85219955444336, 369.15643310546875, 366.5013427734375, 549.168212890625
51.0, 51.101200103759766, 629.3460693359375, 624.5117797851562, 625.9932861328125
51.25, 51.35380172729492, 521.3355102539062, 517.1723022460938, 507.4635925292969
51.5, 51.60219955444336, 511.78472900390625, 507.9235534667969, 469.7536315917969
51.75, 51.85179901123047, 505.59979248046875, 501.5794677734375, 451.0595703125
52.0, 52.10260009765625, 314.0099792480469, 311.22711181640625, 197.58599853515625
52.25, 52.35219955444336, 355.6904296875, 352.8201904296875, 288.3121643066406
52.5, 52.60459899902344, 139.78981018066406, 139.46630859375, 405.78509521484375
52.75, 52.85419845581055, 533.3404541015625, 514.345947265625, 563.485107421875
53.0, 53.10219955444336, 624.8226928710938, 620.2420043945312, 691.1727905273438
53.25, 53.35300064086914, 562.6351318359375, 558.3303833007812, 482.9715881347656
53.5, 53.605201721191406, 176.89187622070312, 175.2093505859375, 64.68243408203125
53.75, 53.85300064086914, 174.77163696289062, 173.0015869140625, 142.30458068847656
54.0, 54.101600646972656, 402.251220703125, 400.1129150390625, 528.3555908203125
54.25, 54.35300064086914, 457.6889343261719, 454.64776611328125, 489.05670166015625
54.5, 54.604000091552734, 469.6870422363281, 466.3847351074219, 490.9645690917969
54.75, 54.85260009765625, 627.528564453125, 622.9906005859375, 651.5823364257812
55.0, 55.10279846191406, 453.3257751464844, 449.787353515625, 358.8811340332031
55.25, 55.35380172729492, 271.62335205078125, 269.3340148925781, 165.6045684814453
55.5, 55.60179901123047, 313.2318420410156, 310.5981750488281, 122.43215942382812
55.75, 55.853599548339844, 191.40806579589844, 191.87371826171875, 399.88165283203125
56.0, 56.10179901123047, 697.8751831054688, 692.8396606445312, 754.2970581054688
56.25, 56.35179901123047, 622.0185546875, 617.2545776367188, 577.4547119140625
56.5, 56.60260009765625, 453.83746337890625, 450.1591491699219, 342.7188720703125
56.75, 56.850399017333984, 297.67388916015625, 295.0512390136719, 217.80409240722656
57.0, 57.10139846801758, 372.5906677246094, 369.43243408203125, 217.89498901367188
57.25, 57.35419845581055, 367.689453125, 364.6378479003906, 241.37673950195312
57.5, 57.601600646972656, 209.81448364257812, 208.5206298828125, 111.3417739868164
57.75, 57.85200119018555, 136.33517456054688, 135.32701110839844, 216.86312866210938
58.0, 58.101600646972656, 489.48455810546875, 486.3255310058594, 533.57958984375
58.25, 58.3568000793457, 491.764892578125, 488.414306640625, 536.49658203125
58.5, 58.601600646972656, 525.9649047851562, 522.4344482421875, 611.7617797851562
58.75, 58.851200103759766, 649.4990234375, 644.8338012695312, 670.6737670898438
59.0, 59.10240173339844, 375.2211608886719, 372.1936950683594, 251.04266357421875
59.25, 59.35139846801758, 162.70021057128906, 161.655029296875, 84.10619354248047
59.5, 59.604801177978516, 290.0707702636719, 287.8980712890625, 113.68238067626953
59.75, 59.85100173950195, 354.0369567871094, 351.9521789550781, 580.3868408203125
60.0, 60.10279846191406, 592.1356201171875, 588.204833984375, 648.3575439453125
