Time, Timer, measurement1.Three-phase Meter1.VLn_RMS, measurement2.Three-phase Meter2.VLn_RMS, measurement3.Three-phase Meter3.VLn_RMS
0.25, 0.30219998955726624, 470.32928466796875, 466.73663330078125, 466.308837890625
0.5, 0.5609999895095825, 470.5616455078125, 466.9704895019531, 466.5423889160156
0.75, 0.8133999705314636, 467.9317626953125, 464.3574523925781, 463.92584228515625
1.0, 1.0642000436782837, 468.9806823730469, 465.40216064453125, 464.9714050292969
1.25, 1.3056000471115112, 468.53076171875, 464.9595031738281, 464.53009033203125
1.5, 1.5528000593185425, 468.98095703125, 465.4040832519531, 464.97503662109375
1.75, 1.8167999982833862, 470.0734558105469, 466.55078125, 466.07159423828125
2.0, 2.0536000728607178, 469.1567077636719, 465.6434326171875, 465.1607971191406
2.25, 2.3024001121520996, 469.3322448730469, 465.88433837890625, 465.3569030761719
2.5, 2.558199882507324, 469.10723876953125, 465.7458190917969, 465.1905517578125
2.75, 2.801800012588501, 469.0016174316406, 465.6161193847656, 465.0699462890625
3.0, 3.0543999671936035, 467.5062255859375, 464.0400085449219, 463.5308532714844
3.25, 3.3115999698638916, 469.18115234375, 465.7350158691406, 465.21038818359375
3.5, 3.561199903488159, 469.2849426269531, 465.9032897949219, 465.35626220703125
3.75, 3.8036000728607178, 469.2453918457031, 465.87750244140625, 465.3215026855469
4.0, 4.053599834442139, 469.0951232910156, 465.6994934082031, 465.1602783203125
4.25, 4.302000045776367, 469.2773742675781, 465.9065246582031, 465.3568420410156
4.5, 4.552800178527832, 469.1878356933594, 465.7896423339844, 465.2511291503906
4.75, 4.805200099945068, 468.986328125, 465.4890441894531, 464.9912414550781
5.0, 5.053999900817871, 469.32110595703125, 465.8944396972656, 465.3636474609375
5.25, 5.303599834442139, 469.9096374511719, 466.5427551269531, 465.9873352050781
5.5, 5.554800033569336, 469.1605529785156, 465.7796325683594, 465.23272705078125
5.75, 5.802199840545654, 468.58563232421875, 465.1475524902344, 464.62200927734375
6.0, 6.053800106048584, 469.3103942871094, 465.8459777832031, 465.33209228515625
6.25, 6.3053998947143555, 469.3470764160156, 465.92828369140625, 465.387451171875
6.5, 6.5524001121521, 469.3458251953125, 465.97381591796875, 465.4164733886719
6.75, 6.802999973297119, 469.0950622558594, 465.6943359375, 465.1531677246094
7.0, 7.0543999671936035, 469.4008483886719, 466.0312805175781, 465.48052978515625
7.25, 7.309599876403809, 469.29534912109375, 465.8988037109375, 465.3600769042969
7.5, 7.557600021362305, 467.853759765625, 464.3673095703125, 463.8693542480469
7.75, 7.808599948883057, 469.4010314941406, 465.9512634277344, 465.4275207519531
8.0, 8.061599731445312, 470.09417724609375, 466.7079162597656, 466.15960693359375
8.25, 8.310799598693848, 469.3940124511719, 466.02239990234375, 465.4705505371094
8.5, 8.55840015411377, 469.210693359375, 465.81036376953125, 465.273681640625
8.75, 8.802000045776367, 469.1803283691406, 465.6980285644531, 465.1953430175781
9.0, 9.061200141906738, 469.40399169921875, 465.9803161621094, 465.44232177734375
9.25, 9.303400039672852, 469.2421875, 465.8852844238281, 465.32879638671875
9.5, 9.55679988861084, 469.129638671875, 465.749267578125, 465.2066955566406
9.75, 9.805399894714355, 468.1405334472656, 464.660400390625, 464.1558532714844
10.0, 10.074399948120117, 469.4420471191406, 466.0038146972656, 465.47283935546875
10.25, 10.302599906921387, 470.3487243652344, 466.9627685546875, 466.4101257324219
10.5, 10.56779956817627, 469.2519836425781, 465.86956787109375, 465.3167724609375
10.75, 10.81980037689209, 468.8704833984375, 465.4733581542969, 464.9362487792969
11.0, 11.06980037689209, 469.3246154785156, 465.9530334472656, 465.4053649902344
11.25, 11.323399543762207, 469.280517578125, 465.87957763671875, 465.3422546386719
11.5, 11.5802001953125, 469.23199462890625, 465.7371826171875, 465.2354736328125
11.75, 11.818599700927734, 469.35614013671875, 465.93011474609375, 465.3975524902344
12.0, 12.0693998336792, 469.3698425292969, 466.0194091796875, 465.46240234375
12.25, 12.32040023803711, 469.23175048828125, 465.84759521484375, 465.3017883300781
12.5, 12.571000099182129, 467.4454040527344, 463.9839782714844, 463.4748840332031
12.75, 12.81820011138916, 469.3341979980469, 465.8729553222656, 465.3570556640625
13.0, 13.071200370788574, 467.3576965332031, 463.9602355957031, 463.4179382324219
13.25, 13.31980037689209, 469.354248046875, 465.9830322265625, 465.4273681640625
13.5, 13.571800231933594, 469.15289306640625, 465.75, 465.21063232421875
13.75, 13.81760025024414, 469.4305419921875, 466.0637512207031, 465.5134582519531
14.0, 14.070599555969238, 469.3131408691406, 465.9208068847656, 465.3829040527344
14.25, 14.319600105285645, 468.8662109375, 465.367919921875, 464.8743591308594
14.5, 14.569600105285645, 469.3492126464844, 465.9089660644531, 465.3830261230469
14.75, 14.819199562072754, 470.3709411621094, 467.0003967285156, 466.4477844238281
15.0, 15.072799682617188, 469.36688232421875, 465.9878845214844, 465.4390563964844
15.25, 15.318599700927734, 471.0348205566406, 467.5320739746094, 467.0000915527344
15.5, 15.570599555969238, 469.2691650390625, 465.78399658203125, 465.2746887207031
15.75, 15.81820011138916, 469.37646484375, 465.9671936035156, 465.42816162109375
16.0, 16.06879997253418, 469.29254150390625, 465.932373046875, 465.37677001953125
16.25, 16.321800231933594, 469.191650390625, 465.7879943847656, 465.2455139160156
16.5, 16.572599411010742, 468.9537658691406, 465.4707946777344, 464.9657287597656
16.75, 16.82040023803711, 469.4711608886719, 466.027099609375, 465.49609375
17.0, 17.072200775146484, 470.1905822753906, 466.8201904296875, 466.2628479003906
17.25, 17.319599151611328, 469.2635192871094, 465.8814392089844, 465.3313903808594
17.5, 17.568599700927734, 467.4197692871094, 464.0543212890625, 463.51654052734375
17.75, 17.820999145507812, 469.3974609375, 466.02593994140625, 465.47760009765625
18.0, 18.069599151611328, 469.20648193359375, 465.81817626953125, 465.2811584472656
18.25, 18.31879997253418, 469.25738525390625, 465.763671875, 465.2611083984375
18.5, 18.572200775146484, 469.2987060546875, 465.87384033203125, 465.3392028808594
18.75, 18.821399688720703, 469.280029296875, 465.91595458984375, 465.3589782714844
19.0, 19.07080078125, 469.2474365234375, 465.85687255859375, 465.3114013671875
19.25, 19.317800521850586, 467.459228515625, 463.994873046875, 463.4865417480469
19.5, 19.569599151611328, 469.2647705078125, 465.8104248046875, 465.2913818359375
19.75, 19.82360076904297, 469.81866455078125, 466.4409484863281, 465.8921203613281
20.0, 20.07159996032715, 469.31597900390625, 465.9501953125, 465.3960266113281
20.25, 20.31839942932129, 469.1161804199219, 465.71942138671875, 465.1809387207031
20.5, 20.570999145507812, 469.49188232421875, 466.129150390625, 465.5795593261719
20.75, 20.81800079345703, 469.3529968261719, 465.9532165527344, 465.4163513183594
21.0, 21.071399688720703, 469.1212158203125, 465.6169128417969, 465.1235046386719
21.25, 21.32040023803711, 469.4085998535156, 465.9765319824219, 465.44775390625
21.5, 21.56839942932129, 470.2986145019531, 466.9212951660156, 466.36749267578125
21.75, 21.818199157714844, 469.2992858886719, 465.9158935546875, 465.3706970214844
22.0, 22.070199966430664, 469.9836120605469, 466.5060729980469, 465.9762878417969
22.25, 22.31839942932129, 469.2273254394531, 465.7657165527344, 465.2511291503906
22.5, 22.56800079345703, 469.32733154296875, 465.91900634765625, 465.3795471191406
22.75, 22.82080078125, 469.3707275390625, 466.0046081542969, 465.44866943359375
23.0, 23.07080078125, 469.279541015625, 465.87896728515625, 465.3372497558594
23.25, 23.318599700927734, 469.1794738769531, 465.68646240234375, 465.1831970214844
23.5, 23.56839942932129, 469.3714599609375, 465.9473571777344, 465.4139099121094
23.75, 23.819000244140625, 470.09716796875, 466.7320251464844, 466.1740417480469
24.0, 24.069400787353516, 469.3268127441406, 465.9422302246094, 465.3909912109375
24.25, 24.31800079345703, 469.6542663574219, 466.2746276855469, 465.73236083984375
24.5, 24.568199157714844, 469.34564208984375, 465.9631042480469, 465.4184875488281
24.75, 24.817399978637695, 469.25042724609375, 465.85552978515625, 465.31915283203125
25.0, 25.07080078125, 469.3531494140625, 465.86895751953125, 465.3623352050781
25.25, 25.317800521850586, 469.3094177246094, 465.88201904296875, 465.3462829589844
25.5, 25.569599151611328, 469.27734375, 465.915771484375, 465.3583984375
25.75, 25.819799423217773, 469.32318115234375, 465.93243408203125, 465.3894348144531
26.0, 26.07040023803711, 467.9009704589844, 464.4237060546875, 463.92279052734375
26.25, 26.32040023803711, 469.41461181640625, 465.9686279296875, 465.4456481933594
26.5, 26.568199157714844, 469.96881103515625, 466.59063720703125, 466.03948974609375
26.75, 26.82200050354004, 469.30224609375, 465.9333190917969, 465.3808898925781
27.0, 27.06879997253418, 469.0887756347656, 465.7017822265625, 465.16400146484375
27.25, 27.32080078125, 469.4837951660156, 466.1092834472656, 465.5596923828125
27.5, 27.568599700927734, 469.395263671875, 465.99578857421875, 465.4595947265625
27.75, 27.821800231933594, 469.2124938964844, 465.5791015625, 465.0862121582031
28.0, 28.06920051574707, 469.47052001953125, 466.0374450683594, 465.5064392089844
28.25, 28.32159996032715, 469.86724853515625, 466.5, 465.9437255859375
28.5, 28.568599700927734, 469.4459228515625, 466.0584716796875, 465.51104736328125
28.75, 28.817800521850586, 467.8887023925781, 464.41400146484375, 463.89501953125
29.0, 29.069000244140625, 469.30303955078125, 465.8460998535156, 465.32818603515625
29.25, 29.321199417114258, 469.284423828125, 465.87506103515625, 465.3351745605469
29.5, 29.56920051574707, 469.3451232910156, 465.9737854003906, 465.4178466796875
29.75, 29.81800079345703, 469.2685546875, 465.8633728027344, 465.32232666015625
30.0, 30.06800079345703, 469.08563232421875, 465.59893798828125, 465.09619140625
30.25, 30.32040023803711, 469.4073181152344, 465.9749755859375, 465.4399719238281
30.5, 30.56920051574707, 469.7164306640625, 466.3502197265625, 465.7908935546875
30.75, 30.82159996032715, 469.3294372558594, 465.93878173828125, 465.39068603515625
31.0, 31.068199157714844, 470.33978271484375, 466.96044921875, 466.41326904296875
31.25, 31.32159996032715, 469.3384704589844, 465.955322265625, 465.409423828125
31.5, 31.577600479125977, 469.4659729003906, 466.09478759765625, 465.5582275390625
31.75, 31.81760025024414, 469.3439025878906, 465.8597717285156, 465.3551940917969
32.0, 32.06999969482422, 469.3251037597656, 465.90631103515625, 465.36895751953125
32.25, 32.3202018737793, 469.3106994628906, 465.9449157714844, 465.3878173828125
32.5, 32.57040023803711, 469.28924560546875, 465.8811340332031, 465.33941650390625
32.75, 32.8202018737793, 468.3616027832031, 464.8832092285156, 464.384033203125
33.0, 33.06880187988281, 469.42523193359375, 466.00994873046875, 465.4869689941406
33.25, 33.319801330566406, 470.4482727050781, 467.0743408203125, 466.51812744140625
33.5, 33.56840133666992, 469.3099365234375, 465.9374694824219, 465.3851318359375
33.75, 33.82059860229492, 467.70831298828125, 464.25616455078125, 463.72235107421875
34.0, 34.06880187988281, 469.4600524902344, 466.09173583984375, 465.5430908203125
34.25, 34.32080078125, 469.3387756347656, 465.93267822265625, 465.3973388671875
34.5, 34.57120132446289, 469.1883544921875, 465.692626953125, 465.19793701171875
34.75, 34.81880187988281, 469.47369384765625, 466.0754089355469, 465.5439758300781
35.0, 35.068599700927734, 469.52801513671875, 466.15582275390625, 465.5989685058594
35.25, 35.32160186767578, 469.22076416015625, 465.835205078125, 465.2895812988281
35.5, 35.571800231933594, 467.3599548339844, 463.9096374511719, 463.3989562988281
35.75, 35.82040023803711, 469.3305969238281, 465.8742980957031, 465.35589599609375
36.0, 36.0713996887207, 466.9943542480469, 463.6026306152344, 463.0652770996094
36.25, 36.32120132446289, 469.40631103515625, 466.0396423339844, 465.4844970703125
36.5, 36.56959915161133, 469.22802734375, 465.8276672363281, 465.2864074707031
36.75, 36.81779861450195, 469.19378662109375, 465.70782470703125, 465.2032775878906
37.0, 37.071800231933594, 469.2606201171875, 465.8403015136719, 465.30438232421875
37.25, 37.31779861450195, 469.43438720703125, 466.0713806152344, 465.51171875
37.5, 37.57160186767578, 469.3586730957031, 465.96868896484375, 465.42095947265625
37.75, 37.819801330566406, 470.3382568359375, 466.9529724121094, 466.40313720703125
38.0, 38.07059860229492, 469.3731994628906, 465.9898376464844, 465.4439697265625
38.25, 38.31800079345703, 472.2711486816406, 468.73565673828125, 468.20294189453125
38.5, 38.57040023803711, 469.40118408203125, 465.92230224609375, 465.4132385253906
38.75, 38.82160186767578, 469.312744140625, 465.8874206542969, 465.3497009277344
39.0, 39.06840133666992, 469.37835693359375, 466.013427734375, 465.45654296875
39.25, 39.322200775146484, 469.2752990722656, 465.88311767578125, 465.34246826171875
39.5, 39.56959915161133, 468.8790283203125, 465.38616943359375, 464.8880615234375
39.75, 39.81719970703125, 469.45892333984375, 466.0182189941406, 465.48834228515625
40.0, 40.0713996887207, 470.2877197265625, 466.9028015136719, 466.3468017578125
40.25, 40.3213996887207, 469.2307434082031, 465.8553161621094, 465.3046875
40.5, 40.57059860229492, 469.1181335449219, 465.7772521972656, 465.2375183105469
40.75, 40.82040023803711, 469.4029541015625, 466.0245666503906, 465.47705078125
41.0, 41.06779861450195, 469.3437194824219, 465.9102478027344, 465.3751525878906
41.25, 41.318199157714844, 469.22271728515625, 465.7218933105469, 465.22528076171875
41.5, 41.56800079345703, 469.45098876953125, 466.0283203125, 465.49493408203125
41.75, 41.821800231933594, 469.3378601074219, 465.9731140136719, 465.4176330566406
42.0, 42.07099914550781, 469.2318115234375, 465.841796875, 465.2959899902344
42.25, 42.31719970703125, 467.6365051269531, 464.17669677734375, 463.6717529296875
42.5, 42.56760025024414, 469.4300842285156, 465.96533203125, 465.4437561035156
42.75, 42.821800231933594, 469.5005187988281, 466.14154052734375, 465.5951843261719
43.0, 43.068199157714844, 469.4185485839844, 466.05169677734375, 465.4976501464844
43.25, 43.32099914550781, 469.26837158203125, 465.8621520996094, 465.3253479003906
43.5, 43.57120132446289, 469.2275390625, 465.7467956542969, 465.2407531738281
43.75, 43.81800079345703, 469.3424072265625, 465.9141845703125, 465.3770751953125
44.0, 44.07080078125, 469.3041687011719, 465.9535827636719, 465.39373779296875
44.25, 44.31800079345703, 469.1935729980469, 465.801513671875, 465.2567138671875
44.5, 44.568199157714844, 470.3657531738281, 466.9740295410156, 466.4243469238281
44.75, 44.81740188598633, 469.28460693359375, 465.90057373046875, 465.3562927246094
45.0, 45.068199157714844, 468.5136413574219, 467.82275390625, 467.2900695800781
45.25, 45.31880187988281, 469.3904113769531, 465.9185485839844, 465.4080810546875
45.5, 45.568199157714844, 469.34454345703125, 465.9199523925781, 465.38153076171875
45.75, 45.82040023803711, 469.44757080078125, 466.0762939453125, 465.5203552246094
46.0, 46.07099914550781, 469.2917785644531, 465.8885803222656, 465.3482971191406
46.25, 46.31779861450195, 469.0633544921875, 465.56170654296875, 465.06390380859375
46.5, 46.57040023803711, 469.3858642578125, 465.9664611816406, 465.4341735839844
46.75, 46.819400787353516, 469.8783874511719, 466.5050354003906, 465.9496765136719
47.0, 47.068599700927734, 469.1589050292969, 465.78790283203125, 465.23779296875
47.25, 47.3202018737793, 469.406982421875, 466.04132080078125, 465.51226806640625
47.5, 47.56959915161133, 469.38372802734375, 465.9953308105469, 465.44818115234375
47.75, 47.819000244140625, 469.3216247558594, 465.9030456542969, 465.3680419921875
48.0, 48.07059860229492, 469.25128173828125, 465.75927734375, 465.25921630859375
48.25, 48.31760025024414, 469.4294738769531, 466.00732421875, 465.4718017578125
48.5, 48.57059860229492, 469.2998352050781, 465.936767578125, 465.37939453125
48.75, 48.81999969482422, 469.1827087402344, 465.7906188964844, 465.24615478515625
49.0, 49.071800231933594, 468.1943664550781, 464.7242126464844, 464.2281799316406
49.25, 49.31719970703125, 469.37689208984375, 465.9334411621094, 465.412841796875
49.5, 49.56779861450195, 469.7047424316406, 466.3457336425781, 465.8070983886719
49.75, 49.81880187988281, 469.3590087890625, 465.9899597167969, 465.4366760253906
50.0, 50.0702018737793, 469.15478515625, 465.7471008300781, 465.2742614746094
50.25, 50.31760025024414, 469.2294921875, 465.7481689453125, 465.2394104003906
50.5, 50.57099914550781, 469.34765625, 465.9247131347656, 465.38592529296875
50.75, 50.81959915161133, 469.3710632324219, 466.019287109375, 465.4613037109375
51.0, 51.07059860229492, 469.1988220214844, 465.8055114746094, 465.2593994140625
51.25, 51.3213996887207, 470.0592956542969, 466.67327880859375, 466.1174011230469
51.5, 51.56919860839844, 469.42730712890625, 466.0393371582031, 465.5013427734375
51.75, 51.82160186767578, 467.3066101074219, 463.84918212890625, 464.2645263671875
52.0, 52.06800079345703, 469.4060974121094, 465.9448547363281, 465.4280090332031
52.25, 52.318199157714844, 469.3743896484375, 465.9515075683594, 465.4122619628906
52.5, 52.56919860839844, 469.46978759765625, 466.0906982421875, 465.53533935546875
52.75, 52.8202018737793, 469.2048034667969, 465.8000793457031, 465.261474609375
53.0, 53.0723991394043, 469.16131591796875, 465.6559143066406, 465.15875244140625
53.25, 53.31760025024414, 469.38348388671875, 465.95562744140625, 465.4198303222656
53.5, 53.569400787353516, 469.7845458984375, 466.4200134277344, 465.8579406738281
53.75, 53.82040023803711, 469.4154968261719, 466.0235900878906, 465.4756774902344
54.0, 54.068599700927734, 470.1990051269531, 466.82037353515625, 466.27996826171875
54.25, 54.31919860839844, 469.3619384765625, 465.9776916503906, 465.4342956542969
54.5, 54.56760025024414, 469.24932861328125, 465.8257141113281, 465.2916564941406
54.75, 54.81740188598633, 469.24798583984375, 465.7757263183594, 465.27398681640625
55.0, 55.0713996887207, 469.4153137207031, 466.0018005371094, 465.4654846191406
55.25, 55.32040023803711, 469.295166015625, 465.937255859375, 465.3815002441406
55.5, 55.569400787353516, 469.212890625, 465.82489013671875, 465.28033447265625
55.75, 55.81779861450195, 468.2584228515625, 464.78570556640625, 464.2912902832031
56.0, 56.07040023803711, 469.4412536621094, 465.9925231933594, 465.4640197753906
56.25, 56.3213996887207, 470.43878173828125, 467.0692443847656, 466.5190734863281
56.5, 56.5713996887207, 469.32659912109375, 465.9603271484375, 465.40899658203125
56.75, 56.8202018737793, 469.29119873046875, 465.9169921875, 465.39617919921875
57.0, 57.071800231933594, 469.30224609375, 465.8270568847656, 465.3157653808594
57.25, 57.32120132446289, 469.2958984375, 465.87396240234375, 465.33331298828125
57.5, 57.5713996887207, 469.3079528808594, 465.9580078125, 465.3983459472656
57.75, 57.82160186767578, 469.1705322265625, 465.7711181640625, 465.2276611328125
58.0, 58.068599700927734, 469.7547607421875, 466.37432861328125, 465.8188171386719
58.25, 58.32160186767578, 469.4129943847656, 466.0198669433594, 465.4780578613281
58.5, 58.56760025024414, 467.25433349609375, 463.79095458984375, 463.2835388183594
58.75, 58.82099914550781, 469.4042663574219, 465.9460144042969, 465.4285583496094
59.0, 59.069400787353516, 467.7036437988281, 464.2627868652344, 463.7001647949219
59.25, 59.31840133666992, 469.5019836425781, 466.1259765625, 465.57073974609375
59.5, 59.56919860839844, 469.2012939453125, 465.79754638671875, 465.2594299316406
59.75, 59.81740188598633, 469.15802001953125, 465.6579895019531, 465.1582946777344
60.0, 60.07059860229492, 469.3747253417969, 465.9493103027344, 465.41522216796875
