Time, Timer, measurement1.Three-phase Meter1.VLn_RMS, measurement2.Three-phase Meter2.VLn_RMS, measurement3.Three-phase Meter3.VLn_RMS
0.25, 0.30799999833106995, 470.6051940917969, 466.9990539550781, 466.5710144042969
0.5, 0.5587999820709229, 469.69744873046875, 466.1064758300781, 465.6792297363281
0.75, 0.8004000186920166, 469.676025390625, 466.0832824707031, 465.656005859375
1.0, 1.0621999502182007, 469.72528076171875, 466.134521484375, 465.707275390625
1.25, 1.3137999773025513, 469.76898193359375, 466.17755126953125, 465.7502746582031
1.5, 1.5595999956130981, 469.680908203125, 466.0901184082031, 465.66314697265625
1.75, 1.8056000471115112, 470.56787109375, 467.02972412109375, 466.5601501464844
2.0, 2.059999942779541, 470.0089416503906, 466.5410461425781, 466.0335693359375
2.25, 2.309000015258789, 470.0055847167969, 466.57574462890625, 466.04779052734375
2.5, 2.552999973297119, 469.9122314453125, 466.4895324707031, 465.958251953125
2.75, 2.8001999855041504, 469.9973449707031, 466.57647705078125, 466.0429992675781
3.0, 3.0510001182556152, 470.0051574707031, 466.5899353027344, 466.0557861328125
3.25, 3.302799940109253, 469.98834228515625, 466.57342529296875, 466.0390625
3.5, 3.5510001182556152, 469.9805908203125, 466.5652160644531, 466.03070068359375
3.75, 3.8001999855041504, 470.015869140625, 466.6028137207031, 466.0683288574219
4.0, 4.05079984664917, 470.03057861328125, 466.6138916015625, 466.07928466796875
4.25, 4.3094000816345215, 470.0072326660156, 466.5943298339844, 466.0597229003906
4.5, 4.5655999183654785, 470.0223693847656, 466.6065979003906, 466.07208251953125
4.75, 4.8084001541137695, 470.066650390625, 466.6542053222656, 466.1196594238281
5.0, 5.0503997802734375, 470.0368957519531, 466.6221923828125, 466.0876770019531
5.25, 5.300000190734863, 470.07666015625, 466.6579284667969, 466.12347412109375
5.5, 5.552599906921387, 470.06463623046875, 466.651123046875, 466.1166687011719
5.75, 5.807799816131592, 470.1003723144531, 466.68536376953125, 466.15081787109375
6.0, 6.055799961090088, 470.0989685058594, 466.69000244140625, 466.1554870605469
6.25, 6.304999828338623, 470.0633239746094, 466.652587890625, 466.1180419921875
6.5, 6.5584001541137695, 470.1547546386719, 466.7366638183594, 466.20208740234375
6.75, 6.808199882507324, 470.09832763671875, 466.6818542480469, 466.1473388671875
7.0, 7.055600166320801, 470.1466979980469, 466.7295227050781, 466.19482421875
7.25, 7.300600051879883, 470.0038757324219, 466.5884094238281, 466.0538635253906
7.5, 7.553599834442139, 470.0981140136719, 466.68231201171875, 466.1476745605469
7.75, 7.805200099945068, 470.0933532714844, 466.6808776855469, 466.1462097167969
8.0, 8.055800437927246, 470.0900573730469, 466.6759948730469, 466.14141845703125
8.25, 8.300200462341309, 470.153564453125, 466.7365417480469, 466.20184326171875
8.5, 8.559200286865234, 470.0665588378906, 466.6566467285156, 466.12213134765625
8.75, 8.80679988861084, 470.215087890625, 466.7994689941406, 466.2648010253906
9.0, 9.057999610900879, 470.13330078125, 466.7185363769531, 466.18402099609375
9.25, 9.302800178527832, 470.1229553222656, 466.7078857421875, 466.1732177734375
9.5, 9.550000190734863, 470.0946960449219, 466.682861328125, 466.1483154296875
9.75, 9.802000045776367, 470.0780944824219, 466.6623840332031, 466.1278991699219
10.0, 10.050999641418457, 470.1314697265625, 466.7117919921875, 466.1772766113281
10.25, 10.300000190734863, 470.0924987792969, 466.6786804199219, 466.14410400390625
10.5, 10.55519962310791, 470.1571960449219, 466.7364501953125, 466.20172119140625
10.75, 10.800200462341309, 470.12799072265625, 466.7057189941406, 466.1710510253906
11.0, 11.050399780273438, 470.2102966308594, 466.78753662109375, 466.2525939941406
11.25, 11.299200057983398, 470.1473388671875, 466.72186279296875, 466.1871032714844
11.5, 11.550999641418457, 470.23199462890625, 466.80755615234375, 466.2727966308594
11.75, 11.803000450134277, 470.10797119140625, 466.6878662109375, 466.1531982421875
12.0, 12.0556001663208, 470.154052734375, 466.73883056640625, 466.20416259765625
12.25, 12.299200057983398, 470.04412841796875, 466.625, 466.090576171875
12.5, 12.551199913024902, 470.09716796875, 466.6782531738281, 466.1436462402344
12.75, 12.799400329589844, 470.1644592285156, 466.7406921386719, 466.20611572265625
13.0, 13.05840015411377, 470.0660705566406, 466.64739990234375, 466.1128845214844
13.25, 13.303199768066406, 470.17108154296875, 466.75830078125, 466.22369384765625
13.5, 13.551600456237793, 470.1389465332031, 466.72467041015625, 466.1900634765625
13.75, 13.800399780273438, 470.1740417480469, 466.76226806640625, 466.2276306152344
14.0, 14.051799774169922, 470.1133728027344, 466.6983947753906, 466.1637268066406
14.25, 14.30519962310791, 470.0924072265625, 466.6802062988281, 466.14556884765625
14.5, 14.553000450134277, 470.1607666015625, 466.74371337890625, 466.208984375
14.75, 14.808199882507324, 470.1256408691406, 466.7148742675781, 466.1801452636719
15.0, 15.051199913024902, 470.09674072265625, 466.6832275390625, 466.1485595703125
15.25, 15.300399780273438, 470.14178466796875, 466.7261047363281, 466.19134521484375
15.5, 15.557600021362305, 470.193359375, 466.7752380371094, 466.2405090332031
15.75, 15.808199882507324, 470.1688537597656, 466.7518005371094, 466.217041015625
16.0, 16.05579948425293, 470.20953369140625, 466.7936096191406, 466.2589111328125
16.25, 16.300399780273438, 470.1476135253906, 466.7294616699219, 466.1947937011719
16.5, 16.549800872802734, 470.1656799316406, 466.7505187988281, 466.21600341796875
16.75, 16.80579948425293, 470.1122131347656, 466.6970520019531, 466.16241455078125
17.0, 17.051799774169922, 470.14227294921875, 466.7303161621094, 466.1956787109375
17.25, 17.300399780273438, 470.11773681640625, 466.70306396484375, 466.1684875488281
17.5, 17.54960060119629, 470.12945556640625, 466.7177734375, 466.1829833984375
17.75, 17.806800842285156, 470.1478576660156, 466.72760009765625, 466.19287109375
18.0, 18.05820083618164, 470.09161376953125, 466.6782531738281, 466.1435241699219
18.25, 18.298999786376953, 470.1848449707031, 466.7666015625, 466.2318420410156
18.5, 18.550800323486328, 470.1427307128906, 466.7261962890625, 466.1914367675781
18.75, 18.80139923095703, 470.12054443359375, 466.6994934082031, 466.16473388671875
19.0, 19.05579948425293, 470.1037902832031, 466.6847839355469, 466.15020751953125
19.25, 19.30820083618164, 470.1002197265625, 466.680908203125, 466.14630126953125
19.5, 19.559799194335938, 470.1235656738281, 466.70562744140625, 466.1710510253906
19.75, 19.802600860595703, 470.15924072265625, 466.73443603515625, 466.1998596191406
20.0, 20.0585994720459, 470.07708740234375, 466.6533508300781, 466.1187438964844
20.25, 20.300399780273438, 470.10284423828125, 466.6888732910156, 466.1543273925781
20.5, 20.550600051879883, 470.14984130859375, 466.73040771484375, 466.19580078125
20.75, 20.798999786376953, 470.14776611328125, 466.731201171875, 466.196533203125
21.0, 21.057600021362305, 469.99456787109375, 466.5852966308594, 466.0506286621094
21.25, 21.299999237060547, 470.1020202636719, 466.6867370605469, 466.1520690917969
21.5, 21.551000595092773, 470.0682067871094, 466.6510009765625, 466.11639404296875
21.75, 21.7992000579834, 470.15521240234375, 466.7333068847656, 466.19854736328125
22.0, 22.05699920654297, 470.12255859375, 466.704345703125, 466.169677734375
22.25, 22.30780029296875, 470.0972595214844, 466.6831970214844, 466.14849853515625
22.5, 22.552200317382812, 470.1064453125, 466.6869201660156, 466.15228271484375
22.75, 22.800199508666992, 475.2619323730469, 474.2890930175781, 471.2816162109375
23.0, 23.052000045776367, 474.73443603515625, 475.2958679199219, 470.7569274902344
23.25, 23.305200576782227, 474.525634765625, 475.6075134277344, 470.55218505859375
23.5, 23.550800323486328, 474.4606018066406, 475.65576171875, 470.4895324707031
23.75, 23.7992000579834, 474.4778747558594, 475.6365051269531, 470.5105285644531
24.0, 24.053199768066406, 474.4638977050781, 475.55877685546875, 470.49139404296875
24.25, 24.307600021362305, 474.5102233886719, 475.5719299316406, 470.5384216308594
24.5, 24.555599212646484, 474.50665283203125, 475.5631408691406, 470.5361022949219
24.75, 24.800600051879883, 474.5635681152344, 475.6250305175781, 470.5899353027344
25.0, 25.060800552368164, 474.5080871582031, 475.58721923828125, 470.53619384765625
25.25, 25.30500030517578, 474.5047302246094, 475.60455322265625, 470.53778076171875
25.5, 25.556400299072266, 474.4252624511719, 475.53021240234375, 470.4519958496094
25.75, 25.806400299072266, 474.47772216796875, 475.5995178222656, 470.5050964355469
26.0, 26.050800323486328, 474.49261474609375, 475.6229248046875, 470.5208435058594
26.25, 26.30699920654297, 474.4648742675781, 475.6036071777344, 470.49530029296875
26.5, 26.55340003967285, 474.4884338378906, 475.6308288574219, 470.5192565917969
26.75, 26.800800323486328, 474.4643249511719, 475.6083984375, 470.4933166503906
27.0, 27.058799743652344, 474.49334716796875, 475.6393127441406, 470.5213317871094
27.25, 27.30780029296875, 474.43310546875, 475.5811767578125, 470.4635314941406
27.5, 27.558000564575195, 474.472412109375, 475.6203918457031, 470.5029602050781
27.75, 27.800399780273438, 474.3912048339844, 475.5355529785156, 470.4217834472656
28.0, 28.050600051879883, 474.4879150390625, 475.6339111328125, 470.5195617675781
28.25, 28.2992000579834, 474.411865234375, 475.5515441894531, 470.439208984375
28.5, 28.55579948425293, 474.4095153808594, 475.5500793457031, 470.43841552734375
28.75, 28.80739974975586, 474.4812316894531, 475.6221618652344, 470.5126037597656
29.0, 29.049999237060547, 474.47039794921875, 475.6062316894531, 470.4955139160156
29.25, 29.302600860595703, 474.53399658203125, 475.67041015625, 470.55987548828125
29.5, 29.55820083618164, 474.510986328125, 475.6512451171875, 470.544677734375
29.75, 29.800199508666992, 474.4869079589844, 475.6270751953125, 470.51800537109375
30.0, 30.055200576782227, 474.571044921875, 475.708740234375, 470.6031188964844
30.25, 30.30500030517578, 474.51007080078125, 475.6457824707031, 470.5396423339844
30.5, 30.550399780273438, 474.4646301269531, 475.6026611328125, 470.49981689453125
30.75, 30.80900001525879, 474.4824523925781, 475.62841796875, 470.5202941894531
31.0, 31.05739974975586, 474.4634094238281, 475.5985412597656, 470.4930114746094
31.25, 31.302400588989258, 474.4541015625, 475.5888977050781, 470.4861145019531
31.5, 31.552400588989258, 474.46142578125, 475.5948181152344, 470.49249267578125
31.75, 31.800600051879883, 474.3577575683594, 475.48236083984375, 470.38287353515625
32.0, 32.0526008605957, 474.4703369140625, 475.6001892089844, 470.4974060058594
32.25, 32.30699920654297, 474.5500793457031, 475.683349609375, 470.58111572265625
32.5, 32.553001403808594, 474.48291015625, 475.6178283691406, 470.514404296875
32.75, 32.79999923706055, 474.47308349609375, 475.6055603027344, 470.50250244140625
33.0, 33.049598693847656, 474.46893310546875, 475.59600830078125, 470.4931640625
33.25, 33.299198150634766, 474.5065612792969, 475.6363525390625, 470.5339660644531
33.5, 33.553001403808594, 474.4961853027344, 475.6230773925781, 470.5199890136719
33.75, 33.80759811401367, 474.4820556640625, 475.60711669921875, 470.50592041015625
34.0, 34.05099868774414, 474.5733947753906, 475.7016296386719, 470.5981750488281
34.25, 34.30059814453125, 474.5467224121094, 475.67236328125, 470.5699768066406
34.5, 34.558998107910156, 474.5335693359375, 475.66448974609375, 470.56011962890625
34.75, 34.806400299072266, 474.5433044433594, 475.6744384765625, 470.5713806152344
35.0, 35.05799865722656, 474.447265625, 475.5810546875, 470.480712890625
35.25, 35.30759811401367, 474.4707946777344, 475.609130859375, 470.5063171386719
35.5, 35.553199768066406, 474.4787292480469, 475.61492919921875, 470.5139465332031
35.75, 35.80139923095703, 474.5279541015625, 475.66778564453125, 470.56414794921875
36.0, 36.05080032348633, 474.4818115234375, 475.6161804199219, 470.5146179199219
36.25, 36.29999923706055, 474.6143493652344, 475.7467041015625, 470.6421813964844
36.5, 36.555599212646484, 474.49432373046875, 475.6301574707031, 470.52825927734375