Time, Timer, measurement1.Three-phase Meter1.VLn_RMS, measurement2.Three-phase Meter2.VLn_RMS, measurement3.Three-phase Meter3.VLn_RMS
0.25, 0.3019999861717224, 470.7154846191406, 467.1112365722656, 466.6832580566406
0.5, 0.5541999936103821, 469.6698303222656, 466.0770263671875, 465.64984130859375
0.75, 0.8137999773025513, 468.8569641113281, 465.270263671875, 464.8437805175781
1.0, 1.0562000274658203, 468.77655029296875, 465.198486328125, 464.77215576171875
1.25, 1.3079999685287476, 470.5853576660156, 467.00067138671875, 466.5726623535156
1.5, 1.554800033569336, 470.6362609863281, 467.04571533203125, 466.61773681640625
1.75, 1.8071999549865723, 471.4857482910156, 467.9497375488281, 467.47918701171875
2.0, 2.0583999156951904, 470.9827880859375, 467.5125732421875, 467.00531005859375
2.25, 2.3032000064849854, 470.9960021972656, 467.5591735839844, 467.03289794921875
2.5, 2.556999921798706, 470.89288330078125, 467.4648742675781, 466.93243408203125
2.75, 2.8010001182556152, 470.9230651855469, 467.5072937011719, 466.9727478027344
3.0, 3.051800012588501, 470.9472351074219, 467.5356750488281, 467.0003967285156
3.25, 3.3024001121520996, 470.89312744140625, 467.4808044433594, 466.9453125
3.5, 3.5524001121520996, 470.9031982421875, 467.49188232421875, 466.9562683105469
3.75, 3.8053998947143555, 470.9401550292969, 467.5317687988281, 466.9961242675781
4.0, 4.05679988861084, 470.9306640625, 467.5209655761719, 466.9852600097656
4.25, 4.303999900817871, 470.9686279296875, 467.5499572753906, 467.0142822265625
4.5, 4.552999973297119, 470.9871826171875, 467.5762634277344, 467.0406188964844
4.75, 4.804999828338623, 470.9794006347656, 467.56634521484375, 467.0307922363281
5.0, 5.052599906921387, 470.9469909667969, 467.5252685546875, 466.9896545410156
5.25, 5.302999973297119, 470.9244689941406, 467.5092468261719, 466.9738464355469
5.5, 5.554599761962891, 470.927490234375, 467.5194396972656, 466.9839782714844
5.75, 5.801199913024902, 470.9288635253906, 467.5113220214844, 466.97589111328125
6.0, 6.056399822235107, 470.96038818359375, 467.5468444824219, 467.0112609863281
6.25, 6.306600093841553, 470.9773254394531, 467.5626220703125, 467.027099609375
6.5, 6.557199954986572, 470.9630432128906, 467.5531005859375, 467.0174255371094
6.75, 6.801199913024902, 471.03070068359375, 467.6150817871094, 467.0793151855469
7.0, 7.053800106048584, 470.9891662597656, 467.5728454589844, 467.0371398925781
7.25, 7.303800106048584, 470.9783630371094, 467.56585693359375, 467.03009033203125
7.5, 7.551400184631348, 470.96783447265625, 467.5560302734375, 467.0202331542969
7.75, 7.80620002746582, 470.96685791015625, 467.5665588378906, 467.0308532714844
8.0, 8.059200286865234, 471.0071105957031, 467.5930480957031, 467.0572814941406
8.25, 8.30620002746582, 470.9554138183594, 467.5414123535156, 467.0057373046875
8.5, 8.555399894714355, 471.0107727050781, 467.60089111328125, 467.0651550292969
8.75, 8.801199913024902, 470.97601318359375, 467.55963134765625, 467.0240478515625
9.0, 9.054400444030762, 471.0197448730469, 467.60791015625, 467.07244873046875
9.25, 9.303000450134277, 470.9788818359375, 467.5669250488281, 467.0313415527344
9.5, 9.556400299072266, 471.0041809082031, 467.5899353027344, 467.0543518066406
9.75, 9.815400123596191, 471.0060729980469, 467.6036376953125, 467.0679931640625
10.0, 10.067999839782715, 470.9637145996094, 467.5559387207031, 467.02032470703125
10.25, 10.326199531555176, 470.9836730957031, 467.575439453125, 467.0397644042969
10.5, 10.585200309753418, 470.99456787109375, 467.57318115234375, 467.0375061035156
10.75, 10.848400115966797, 471.0038146972656, 467.5921325683594, 467.0563659667969
11.0, 11.106399536132812, 471.0054016113281, 467.5867004394531, 467.0509338378906
11.25, 11.347800254821777, 471.02294921875, 467.6002502441406, 467.0644836425781
11.5, 11.606200218200684, 470.9767761230469, 467.5653991699219, 467.0296936035156
11.75, 11.848600387573242, 471.1004638671875, 467.6798095703125, 467.1439208984375
12.0, 12.108400344848633, 470.92706298828125, 467.50823974609375, 466.97259521484375
12.25, 12.348999977111816, 471.051025390625, 467.62261962890625, 467.0867919921875
12.5, 12.606800079345703, 471.02069091796875, 467.5985412597656, 467.0628356933594
12.75, 12.848999977111816, 471.00689697265625, 467.58233642578125, 467.046630859375
13.0, 13.105600357055664, 471.0086669921875, 467.58917236328125, 467.05352783203125
13.25, 13.348199844360352, 471.0325927734375, 467.6117858886719, 467.07611083984375
13.5, 13.598199844360352, 471.0579833984375, 467.6413879394531, 467.10565185546875
13.75, 13.853400230407715, 471.0144348144531, 467.5971374511719, 467.0615539550781
14.0, 14.107799530029297, 470.9994201660156, 467.58209228515625, 467.0450439453125
14.25, 14.353599548339844, 471.022705078125, 467.5970764160156, 467.06134033203125
14.5, 14.607399940490723, 470.99151611328125, 467.5707092285156, 467.0350646972656
14.75, 14.856599807739258, 471.0135192871094, 467.5970764160156, 467.0613098144531
15.0, 15.106599807739258, 471.0134582519531, 467.598388671875, 467.0626220703125
15.25, 15.349200248718262, 471.0215759277344, 467.5973205566406, 467.0615234375
15.5, 15.59939956665039, 471.04071044921875, 467.6219177246094, 467.0861511230469
15.75, 15.857799530029297, 471.02447509765625, 467.6064758300781, 467.07061767578125
16.0, 16.107799530029297, 471.0301818847656, 467.613037109375, 467.0772399902344
16.25, 16.35420036315918, 471.06427001953125, 467.64202880859375, 467.1063232421875
16.5, 16.599599838256836, 471.0271911621094, 467.60430908203125, 467.06866455078125
16.75, 16.857799530029297, 470.9363098144531, 467.52215576171875, 466.9867248535156
17.0, 17.098600387573242, 471.03009033203125, 467.6022644042969, 467.066650390625
17.25, 17.356800079345703, 471.0343322753906, 467.611083984375, 467.075439453125
17.5, 17.59939956665039, 471.0549011230469, 467.6304931640625, 467.0947570800781
17.75, 17.856599807739258, 471.03448486328125, 467.61334228515625, 467.0776062011719
18.0, 18.09939956665039, 471.0192565917969, 467.60638427734375, 467.0705871582031
18.25, 18.35759925842285, 471.0236511230469, 467.6046447753906, 467.06890869140625
18.5, 18.60460090637207, 471.0461730957031, 467.62396240234375, 467.0880432128906
18.75, 18.849000930786133, 471.0191955566406, 467.60296630859375, 467.0671691894531
19.0, 19.10540008544922, 471.0079040527344, 467.5822448730469, 467.04656982421875
19.25, 19.355600357055664, 471.04345703125, 467.6286926269531, 467.09295654296875
19.5, 19.608200073242188, 471.05377197265625, 467.6334228515625, 467.09759521484375
19.75, 19.856399536132812, 471.04669189453125, 467.62982177734375, 467.0941162109375
20.0, 20.108200073242188, 471.0570983886719, 467.641357421875, 467.1056213378906
20.25, 20.347999572753906, 471.0458068847656, 467.6217346191406, 467.08612060546875
20.5, 20.60460090637207, 471.0312194824219, 467.6082458496094, 467.0726013183594
20.75, 20.859399795532227, 471.01422119140625, 467.5946350097656, 467.05914306640625
21.0, 21.107999801635742, 471.0190734863281, 467.5973205566406, 467.0616149902344
21.25, 21.35099983215332, 470.95831298828125, 467.5316162109375, 466.995849609375
21.5, 21.59980010986328, 471.0308532714844, 467.60565185546875, 467.0698547363281
21.75, 21.850799560546875, 471.02337646484375, 467.6023864746094, 467.0665588378906
22.0, 22.10059928894043, 471.0169372558594, 467.59326171875, 467.0574645996094
22.25, 22.357799530029297, 471.0008850097656, 467.58599853515625, 467.05023193359375
22.5, 22.599000930786133, 471.0744323730469, 467.6611328125, 467.1254577636719
22.75, 22.857999801635742, 475.5281066894531, 474.6090087890625, 471.5525817871094
23.0, 23.10420036315918, 474.9795227050781, 475.13330078125, 471.01397705078125
23.25, 23.356199264526367, 474.8108215332031, 475.2882080078125, 470.85040283203125
23.5, 23.60700035095215, 474.8359069824219, 475.35736083984375, 470.87164306640625
23.75, 23.849199295043945, 475.04986572265625, 475.650146484375, 471.0856628417969
24.0, 24.106800079345703, 475.05560302734375, 475.6852722167969, 471.08880615234375
24.25, 24.354000091552734, 475.1382141113281, 475.8247985839844, 471.16033935546875
24.5, 24.608400344848633, 475.1396179199219, 475.8921203613281, 471.1706848144531
24.75, 24.85759925842285, 475.0320739746094, 475.82305908203125, 471.0657958984375
25.0, 25.100200653076172, 475.0807800292969, 475.8959655761719, 471.1106872558594
25.25, 25.35420036315918, 475.1151123046875, 475.9560852050781, 471.1506652832031
25.5, 25.598800659179688, 475.0469970703125, 475.9062805175781, 471.08123779296875
25.75, 25.854999542236328, 475.1458740234375, 476.0129089355469, 471.1753845214844
26.0, 26.10059928894043, 475.0521545410156, 475.921142578125, 471.0863037109375
26.25, 26.348800659179688, 475.0555114746094, 475.9150085449219, 471.0852355957031
26.5, 26.59980010986328, 475.0107421875, 475.87646484375, 471.0459899902344
26.75, 26.849000930786133, 475.0092468261719, 475.86767578125, 471.04058837890625
27.0, 27.10759925842285, 475.0211181640625, 475.89080810546875, 471.05548095703125
27.25, 27.356599807739258, 475.0521240234375, 475.9330139160156, 471.0914306640625
27.5, 27.599599838256836, 475.0619201660156, 475.93731689453125, 471.0958251953125
27.75, 27.856199264526367, 475.0470275878906, 475.9129333496094, 471.0782775878906
28.0, 28.106599807739258, 475.0931091308594, 475.9576721191406, 471.12811279296875
28.25, 28.356399536132812, 475.0572204589844, 475.9107971191406, 471.087890625
28.5, 28.608200073242188, 475.05859375, 475.9075927734375, 471.0914306640625
28.75, 28.850400924682617, 475.0642395019531, 475.927001953125, 471.1000671386719
29.0, 29.10700035095215, 475.0881042480469, 475.95263671875, 471.1195983886719
29.25, 29.357200622558594, 475.041259765625, 475.9110107421875, 471.0765380859375
29.5, 29.606599807739258, 475.06329345703125, 475.9305419921875, 471.1033020019531
29.75, 29.848800659179688, 475.0820007324219, 475.94158935546875, 471.1193542480469
30.0, 30.10420036315918, 475.043701171875, 475.8917236328125, 471.0768737792969
30.25, 30.348600387573242, 475.1390380859375, 475.9931640625, 471.17718505859375
30.5, 30.607999801635742, 475.1030578613281, 475.9627380371094, 471.1385498046875
30.75, 30.847999572753906, 475.0715026855469, 475.9377136230469, 471.107177734375
31.0, 31.104400634765625, 475.0845947265625, 475.9507141113281, 471.12042236328125
31.25, 31.35700035095215, 475.0876770019531, 475.9474792480469, 471.12200927734375
31.5, 31.599000930786133, 475.0697326660156, 475.9306640625, 471.1087646484375
31.75, 31.854999542236328, 475.0369567871094, 475.88909912109375, 471.0797119140625
32.0, 32.09920120239258, 475.0367126464844, 475.8836364746094, 471.0707092285156
32.25, 32.355201721191406, 475.1112060546875, 475.96844482421875, 471.1462707519531
32.5, 32.60499954223633, 475.1111755371094, 475.97564697265625, 471.1478576660156
32.75, 32.857601165771484, 475.0390930175781, 475.8954772949219, 471.070068359375
33.0, 33.1068000793457, 475.0841369628906, 475.94140625, 471.1150817871094
33.25, 33.3484001159668, 475.0664367675781, 475.9098205566406, 471.0945129394531
33.5, 33.607200622558594, 475.0731201171875, 475.9021911621094, 471.09332275390625
33.75, 33.854000091552734, 475.0711669921875, 475.9097595214844, 471.09661865234375
34.0, 34.10940170288086, 475.0945129394531, 475.93316650390625, 471.1134033203125
34.25, 34.353599548339844, 475.0799255371094, 475.9259338378906, 471.10235595703125
34.5, 34.59920120239258, 475.08355712890625, 475.92779541015625, 471.1036071777344
34.75, 34.857601165771484, 475.07745361328125, 475.9281311035156, 471.1032409667969
35.0, 35.09939956665039, 475.0390319824219, 475.8714904785156, 471.0590515136719
35.25, 35.3489990234375, 475.0506591796875, 475.8848876953125, 471.07733154296875
35.5, 35.606998443603516, 475.08209228515625, 475.922119140625, 471.109375
35.75, 35.854000091552734, 475.0653076171875, 475.9136657714844, 471.09588623046875
36.0, 36.09960174560547, 475.0780944824219, 475.9227600097656, 471.0999450683594
36.25, 36.35380172729492, 475.04827880859375, 475.9051513671875, 471.0794677734375
36.5, 36.60419845581055, 475.0132141113281, 475.8624267578125, 471.0421447753906
36.75, 36.85459899902344, 475.0606384277344, 475.9089660644531, 471.0959167480469
37.0, 37.1083984375, 475.1011657714844, 475.9375915527344, 471.12823486328125
37.25, 37.356201171875, 475.0422058105469, 475.8790283203125, 471.0655517578125
37.5, 37.60879898071289, 475.0887756347656, 475.923828125, 471.1091613769531
37.75, 37.8474006652832, 475.0694274902344, 475.9216003417969, 471.0981140136719
38.0, 38.103599548339844, 475.0701599121094, 475.92327880859375, 471.09600830078125
38.25, 38.347999572753906, 475.03228759765625, 475.8775939941406, 471.0586853027344
38.5, 38.60639953613281, 475.07110595703125, 475.90972900390625, 471.095947265625
38.75, 38.847999572753906, 475.064697265625, 475.8952331542969, 471.085205078125
39.0, 39.10419845581055, 475.02313232421875, 475.86578369140625, 471.05487060546875
39.25, 39.34880065917969, 475.1528015136719, 475.99505615234375, 471.1804504394531
39.5, 39.605201721191406, 475.0691223144531, 475.9155578613281, 471.0921630859375
39.75, 39.85060119628906, 475.07086181640625, 475.9236755371094, 471.09619140625
40.0, 40.107398986816406, 475.0501708984375, 475.8911437988281, 471.0712585449219
40.25, 40.35459899902344, 475.06829833984375, 475.9101867675781, 471.09765625
40.5, 40.60559844970703, 475.0442199707031, 475.8807067871094, 471.0691833496094
40.75, 40.8568000793457, 475.03851318359375, 475.8773498535156, 471.06915283203125
41.0, 41.104000091552734, 475.0669250488281, 475.9059143066406, 471.0893859863281
41.25, 41.34859848022461, 475.0901184082031, 475.9387512207031, 471.1155090332031
41.5, 41.606201171875, 475.0489807128906, 475.8954162597656, 471.0692443847656
41.75, 41.85660171508789, 475.0463562011719, 475.88104248046875, 471.0649108886719
42.0, 42.108001708984375, 474.9726257324219, 475.8181457519531, 471.0064392089844
42.25, 42.35340118408203, 475.10821533203125, 475.9397277832031, 471.13104248046875
42.5, 42.608001708984375, 475.0496826171875, 475.8814392089844, 471.074462890625
42.75, 42.85380172729492, 475.0941162109375, 475.93853759765625, 471.1210021972656
43.0, 43.09960174560547, 475.079833984375, 475.9308776855469, 471.1056213378906
43.25, 43.3484001159668, 475.0550842285156, 475.9017028808594, 471.07867431640625
43.5, 43.60100173950195, 475.0546875, 475.8975524902344, 471.08251953125
43.75, 43.84880065917969, 475.02606201171875, 475.87274169921875, 471.0594482421875
44.0, 44.099998474121094, 475.0431213378906, 475.8928527832031, 471.0849304199219
44.25, 44.357200622558594, 477.4468994140625, 477.6363220214844, 475.10382080078125
44.5, 44.60820007324219, 477.0296630859375, 476.8650207519531, 476.1450500488281
44.75, 44.84960174560547, 476.88800048828125, 476.77069091796875, 476.3719787597656
45.0, 45.105201721191406, 476.7156066894531, 476.6327819824219, 476.2863464355469
45.25, 45.347999572753906, 476.71905517578125, 476.6330261230469, 476.2744445800781
45.5, 45.5989990234375, 476.5774841308594, 476.4508972167969, 476.262939453125
45.75, 45.857601165771484, 476.5459289550781, 476.4029846191406, 476.3838195800781
46.0, 46.104000091552734, 476.6150207519531, 476.4873962402344, 476.529541015625
46.25, 46.357200622558594, 476.52777099609375, 476.42559814453125, 476.46649169921875
46.5, 46.604000091552734, 476.4102478027344, 476.3191833496094, 476.3695373535156
46.75, 46.85639953613281, 476.522216796875, 476.4401550292969, 476.5140380859375
47.0, 47.0989990234375, 476.4916687011719, 476.4134826660156, 476.5025939941406
47.25, 47.35559844970703, 476.4510498046875, 476.3985290527344, 476.48431396484375
47.5, 47.606998443603516, 476.42919921875, 476.3815612792969, 476.46881103515625
47.75, 47.85879898071289, 476.4830627441406, 476.4320068359375, 476.517822265625
48.0, 48.10459899902344, 476.50567626953125, 476.4599609375, 476.549072265625
48.25, 48.3489990234375, 476.5279235839844, 476.49249267578125, 476.57684326171875
48.5, 48.5989990234375, 476.4665222167969, 476.44384765625, 476.5267333984375
48.75, 48.85499954223633, 476.54278564453125, 476.5166320800781, 476.60333251953125
49.0, 49.0989990234375, 476.4384765625, 476.42315673828125, 476.4998474121094
49.25, 49.34880065917969, 476.432373046875, 476.4152526855469, 476.4982604980469
49.5, 49.60419845581055, 476.4693298339844, 476.45086669921875, 476.5264892578125
49.75, 49.8577995300293, 476.4794006347656, 476.4560546875, 476.5366516113281
50.0, 50.10580062866211, 476.46197509765625, 476.4429931640625, 476.5168762207031
50.25, 50.357398986816406, 476.4677429199219, 476.45635986328125, 476.5279541015625
50.5, 50.59980010986328, 476.47412109375, 476.46307373046875, 476.5343017578125
50.75, 50.85599899291992, 476.44036865234375, 476.4342956542969, 476.50146484375
51.0, 51.1077995300293, 476.552734375, 476.5444030761719, 476.6123352050781
51.25, 51.35380172729492, 476.4479675292969, 476.4455871582031, 476.5183410644531
51.5, 51.59920120239258, 476.4321594238281, 476.4302062988281, 476.4977111816406
51.75, 51.856201171875, 476.481201171875, 476.48345947265625, 476.5527038574219
52.0, 52.099998474121094, 476.449951171875, 476.43865966796875, 476.5069885253906
52.25, 52.357601165771484, 476.3864440917969, 476.3858642578125, 476.45306396484375
52.5, 52.5984001159668, 476.4427795410156, 476.43634033203125, 476.50592041015625
52.75, 52.85380172729492, 476.51446533203125, 476.50738525390625, 476.5740966796875
53.0, 53.100799560546875, 476.4635925292969, 476.45550537109375, 476.525634765625
53.25, 53.356201171875, 476.4773864746094, 476.47686767578125, 476.5407409667969
53.5, 53.6068000793457, 476.4673156738281, 476.4623718261719, 476.5297546386719
53.75, 53.84880065917969, 476.5013122558594, 476.49847412109375, 476.56402587890625
54.0, 54.10540008544922, 476.4244689941406, 476.42095947265625, 476.4862976074219
54.25, 54.356201171875, 476.4045715332031, 476.4020690917969, 476.4671936035156
54.5, 54.5989990234375, 476.4488525390625, 476.4438171386719, 476.50946044921875
54.75, 54.85559844970703, 476.4527587890625, 476.4538269042969, 476.51800537109375
55.0, 55.09880065917969, 476.492919921875, 476.4935302734375, 476.5594177246094
55.25, 55.35599899291992, 476.4916687011719, 476.4802551269531, 476.5387268066406
55.5, 55.607601165771484, 476.51434326171875, 476.5196228027344, 476.5823059082031
55.75, 55.849998474121094, 476.4326477050781, 476.4318542480469, 476.4944152832031
56.0, 56.10660171508789, 476.4278869628906, 476.42431640625, 476.4847717285156
56.25, 56.35879898071289, 476.45098876953125, 476.4442138671875, 476.50958251953125
56.5, 56.606998443603516, 476.43145751953125, 476.43634033203125, 476.4996337890625
56.75, 56.850799560546875, 476.4613342285156, 476.4608459472656, 476.5249328613281
57.0, 57.10660171508789, 476.4730529785156, 476.4654846191406, 476.5259704589844
57.25, 57.34960174560547, 476.4245910644531, 476.421630859375, 476.484130859375
57.5, 57.60419845581055, 476.4501953125, 476.4541931152344, 476.51611328125
57.75, 57.849998474121094, 476.5025939941406, 476.4993591308594, 476.56256103515625
58.0, 58.10380172729492, 476.40826416015625, 476.4072265625, 476.47161865234375
58.25, 58.356201171875, 476.4482727050781, 476.4517517089844, 476.5142822265625
58.5, 58.60660171508789, 476.47406005859375, 476.4667053222656, 476.5291442871094
58.75, 58.84880065917969, 476.49969482421875, 476.5033264160156, 476.5694580078125
59.0, 59.10540008544922, 476.4377746582031, 476.4345703125, 476.4951477050781
59.25, 59.35499954223633, 476.4504089355469, 476.44854736328125, 476.5102233886719
59.5, 59.606998443603516, 476.4052429199219, 476.3953552246094, 476.4584045410156
59.75, 59.857398986816406, 476.42559814453125, 476.4178771972656, 476.4824523925781
60.0, 60.0984001159668, 476.54656982421875, 476.5457763671875, 476.6123352050781
