Time, Timer, measurement1.Three-phase Meter1.VLn_RMS, measurement2.Three-phase Meter2.VLn_RMS, measurement3.Three-phase Meter3.VLn_RMS
0.25, 0.30399999022483826, 470.3520812988281, 466.7597961425781, 466.33197021484375
0.5, 0.5544000267982483, 469.7014465332031, 466.1124267578125, 465.6851501464844
0.75, 0.8046000003814697, 469.72869873046875, 466.14324951171875, 465.7159729003906
1.0, 1.0565999746322632, 469.7502136230469, 466.1603088378906, 465.7330017089844
1.25, 1.451200008392334, 469.6900634765625, 466.109375, 465.6822509765625
1.5, 1.5568000078201294, 469.7254333496094, 466.1429138183594, 465.7156982421875
1.75, 1.804800033569336, 470.5932312011719, 467.0408935546875, 466.5916748046875
2.0, 2.0555999279022217, 470.1007995605469, 466.6388244628906, 466.1322937011719
2.25, 2.302799940109253, 470.03143310546875, 466.6064758300781, 466.08111572265625
2.5, 2.552799940109253, 470.03759765625, 466.621826171875, 466.0901794433594
2.75, 2.805000066757202, 469.970947265625, 466.5567626953125, 466.0228576660156
3.0, 3.053800106048584, 469.9358215332031, 466.5250244140625, 465.99072265625
3.25, 3.3025999069213867, 469.96820068359375, 466.55145263671875, 466.016845703125
3.5, 3.555000066757202, 470.0055847167969, 466.5873107910156, 466.0525817871094
3.75, 3.802000045776367, 470.0144348144531, 466.5994873046875, 466.064697265625
4.0, 4.056000232696533, 470.0275573730469, 466.6125183105469, 466.0777587890625
4.25, 4.302999973297119, 470.0457458496094, 466.6249084472656, 466.09014892578125
4.5, 4.5543999671936035, 470.0144348144531, 466.59808349609375, 466.0633544921875
4.75, 4.8043999671936035, 470.10577392578125, 466.6874084472656, 466.1525573730469
5.0, 5.0644001960754395, 470.0690002441406, 466.6517639160156, 466.11700439453125
5.25, 5.303199768066406, 470.0636901855469, 466.6384582519531, 466.1036682128906
5.5, 5.554599761962891, 470.0779113769531, 466.6611633300781, 466.1264953613281
5.75, 5.802800178527832, 470.00518798828125, 466.583740234375, 466.0490417480469
6.0, 6.054800033569336, 470.02105712890625, 466.5998229980469, 466.0651550292969
6.25, 6.303999900817871, 470.0472412109375, 466.6296081542969, 466.0948791503906
6.5, 6.554999828338623, 470.07379150390625, 466.6552429199219, 466.1204833984375
6.75, 6.802999973297119, 470.085693359375, 466.66387939453125, 466.1290283203125
7.0, 7.053400039672852, 470.06683349609375, 466.6394348144531, 466.10455322265625
7.25, 7.302800178527832, 470.09283447265625, 466.67364501953125, 466.13873291015625
7.5, 7.556000232696533, 470.0314636230469, 466.6151123046875, 466.0802917480469
7.75, 7.816800117492676, 470.0404052734375, 466.6175842285156, 466.0827331542969
8.0, 8.0556001663208, 470.1153869628906, 466.7026062011719, 466.16717529296875
8.25, 8.316399574279785, 470.05938720703125, 466.64849853515625, 466.1132507324219
8.5, 8.555000305175781, 469.9923095703125, 466.58245849609375, 466.048095703125
8.75, 8.803799629211426, 470.0630187988281, 466.6568603515625, 466.1224670410156
9.0, 9.053799629211426, 470.1429138183594, 466.72314453125, 466.1885681152344
9.25, 9.302000045776367, 470.0995178222656, 466.6861572265625, 466.1517028808594
9.5, 9.5556001663208, 470.080810546875, 466.67120361328125, 466.13671875
9.75, 9.803000450134277, 470.0978698730469, 466.6790466308594, 466.1445007324219
10.0, 10.053999900817871, 470.1226806640625, 466.7060241699219, 466.1715393066406
10.25, 10.302800178527832, 470.1107177734375, 466.695068359375, 466.1605224609375
10.5, 10.562399864196777, 470.074951171875, 466.6501159667969, 466.11553955078125
10.75, 10.805000305175781, 470.1213684082031, 466.70465087890625, 466.1700439453125
11.0, 11.055000305175781, 470.12066650390625, 466.70556640625, 466.17095947265625
11.25, 11.303199768066406, 470.1414489746094, 466.7262268066406, 466.19158935546875
11.5, 11.563400268554688, 470.0863952636719, 466.670654296875, 466.1360168457031
11.75, 11.801799774169922, 470.1495666503906, 466.7284851074219, 466.1938171386719
12.0, 12.059800148010254, 470.1112060546875, 466.6938171386719, 466.1592102050781
12.25, 12.305800437927246, 470.1377258300781, 466.7264099121094, 466.1918029785156
12.5, 12.553000450134277, 470.0986633300781, 466.6831970214844, 466.14862060546875
12.75, 12.802800178527832, 470.07562255859375, 466.66668701171875, 466.1321716308594
13.0, 13.05519962310791, 470.1148376464844, 466.7080993652344, 466.1735534667969
13.25, 13.303799629211426, 477.8699951171875, 475.4169006347656, 473.8672790527344
13.5, 13.555999755859375, 474.2680358886719, 475.5682067871094, 470.300048828125
13.75, 13.802200317382812, 472.575439453125, 476.1567077636719, 468.65179443359375
14.0, 14.054200172424316, 471.51470947265625, 475.776611328125, 467.6150207519531
14.25, 14.305000305175781, 471.08355712890625, 474.76214599609375, 467.2029724121094
14.5, 14.556400299072266, 471.02471923828125, 473.3337707519531, 467.15399169921875
14.75, 14.804400444030762, 471.1260986328125, 471.8687744140625, 467.2576599121094
15.0, 15.053199768066406, 471.3704833984375, 470.40234375, 467.5032653808594
15.25, 15.303000450134277, 471.68670654296875, 469.237060546875, 467.8212585449219
15.5, 15.557600021362305, 472.10308837890625, 468.2439270019531, 468.22869873046875
15.75, 15.81659984588623, 472.3556213378906, 467.3236389160156, 468.4814758300781
16.0, 16.063199996948242, 472.5627136230469, 466.6421813964844, 468.69158935546875
16.25, 16.302799224853516, 472.8475036621094, 466.229736328125, 468.96893310546875
16.5, 16.553600311279297, 472.9722900390625, 465.83367919921875, 469.0948791503906
16.75, 16.80419921875, 473.1392822265625, 465.5949401855469, 469.2584228515625
17.0, 17.055999755859375, 473.302734375, 465.4595947265625, 469.4224853515625
17.25, 17.304800033569336, 473.4325256347656, 465.3423156738281, 469.55535888671875
17.5, 17.555400848388672, 473.5300598144531, 465.270263671875, 469.6455078125
17.75, 17.802799224853516, 473.63818359375, 465.2561340332031, 469.7522277832031
18.0, 18.054399490356445, 473.6864929199219, 465.240234375, 469.8006286621094
18.25, 18.302200317382812, 473.7563781738281, 465.2828674316406, 469.870849609375
18.5, 18.553800582885742, 473.7735900878906, 465.3010559082031, 469.8900146484375
18.75, 18.803600311279297, 473.83184814453125, 465.37689208984375, 469.94683837890625
19.0, 19.053199768066406, 473.8154296875, 465.3935852050781, 469.92974853515625
19.25, 19.302600860595703, 473.88201904296875, 465.49774169921875, 469.99810791015625
19.5, 19.55299949645996, 473.8770751953125, 465.5254821777344, 469.987548828125
19.75, 19.802400588989258, 473.8063049316406, 465.5055236816406, 469.9226379394531
20.0, 20.053800582885742, 473.87725830078125, 465.6005554199219, 469.9880065917969
20.25, 20.302000045776367, 473.8476867675781, 465.60699462890625, 469.9626770019531
20.5, 20.555599212646484, 473.86602783203125, 465.650146484375, 469.9785461425781
20.75, 20.802200317382812, 473.8221130371094, 465.6353759765625, 469.9391174316406
21.0, 21.055599212646484, 473.8527526855469, 465.6849365234375, 469.9747619628906
21.25, 21.302600860595703, 473.8085632324219, 465.64886474609375, 469.9227294921875
21.5, 21.553600311279297, 473.798583984375, 465.649169921875, 469.9158630371094
21.75, 21.80419921875, 473.8296813964844, 465.6868896484375, 469.9485168457031
22.0, 22.054000854492188, 473.7931213378906, 465.64447021484375, 469.9062194824219
22.25, 22.303800582885742, 473.8246154785156, 465.67578125, 469.93536376953125
22.5, 22.553800582885742, 473.78948974609375, 465.64068603515625, 469.90509033203125
22.75, 22.807199478149414, 473.8204345703125, 465.6710205078125, 469.9338073730469
23.0, 23.063800811767578, 473.81695556640625, 465.6625061035156, 469.92919921875
23.25, 23.302200317382812, 473.79974365234375, 465.6434631347656, 469.9119873046875
23.5, 23.55500030517578, 473.7863464355469, 465.62664794921875, 469.8984375
23.75, 23.805599212646484, 473.83172607421875, 465.6597900390625, 469.9400634765625
24.0, 24.055400848388672, 473.8013610839844, 465.6317443847656, 469.9153747558594
24.25, 24.30459976196289, 473.5839538574219, 465.48223876953125, 469.6978759765625
24.5, 24.552799224853516, 473.4841003417969, 465.4881896972656, 469.6005554199219
24.75, 24.802000045776367, 473.29949951171875, 465.3585510253906, 469.41656494140625
25.0, 25.062999725341797, 473.25323486328125, 465.28857421875, 469.374267578125
25.25, 25.30299949645996, 473.2563171386719, 465.224365234375, 469.3775634765625
25.5, 25.553199768066406, 473.253173828125, 465.1366882324219, 469.3793029785156
25.75, 25.80299949645996, 473.2502136230469, 465.0330810546875, 469.3785095214844
26.0, 26.053800582885742, 473.2159423828125, 464.9042053222656, 469.3403015136719
26.25, 26.30299949645996, 473.275634765625, 464.87054443359375, 469.3956298828125
26.5, 26.553199768066406, 473.306640625, 464.8343505859375, 469.43182373046875
26.75, 26.802600860595703, 473.28778076171875, 464.7471008300781, 469.4107360839844
27.0, 27.05459976196289, 473.3365478515625, 464.7439880371094, 469.4569091796875
27.25, 27.304000854492188, 473.34381103515625, 464.71148681640625, 469.47003173828125
27.5, 27.552200317382812, 473.3505859375, 464.68060302734375, 469.4734191894531
27.75, 27.803600311279297, 473.3576354980469, 464.663330078125, 469.4783630371094
28.0, 28.055599212646484, 473.3735656738281, 464.671142578125, 469.5053405761719
28.25, 28.302200317382812, 473.3738098144531, 464.6580505371094, 469.4992370605469
28.5, 28.55340003967285, 473.377685546875, 464.6560974121094, 469.5023498535156
28.75, 28.802799224853516, 473.42694091796875, 464.6912536621094, 469.5423278808594
29.0, 29.052200317382812, 473.4208984375, 464.6919250488281, 469.5458068847656
29.25, 29.301799774169922, 473.4257507324219, 464.6994323730469, 469.5510559082031
29.5, 29.555200576782227, 473.3614196777344, 464.6454772949219, 469.4913635253906
29.75, 29.802000045776367, 473.44085693359375, 464.7179260253906, 469.56182861328125
30.0, 30.052200317382812, 473.4427795410156, 464.7158508300781, 469.55828857421875
30.25, 30.314800262451172, 473.4437255859375, 464.7268371582031, 469.5639953613281
30.5, 30.553199768066406, 473.41790771484375, 464.70843505859375, 469.5443420410156
30.75, 30.80459976196289, 473.4035949707031, 464.7009582519531, 469.5314636230469
31.0, 31.053600311279297, 473.41265869140625, 464.7051086425781, 469.5337829589844
31.25, 31.30500030517578, 473.3777160644531, 464.67254638671875, 469.50274658203125
31.5, 31.555200576782227, 473.427734375, 464.7220458984375, 469.5513916015625
31.75, 31.804000854492188, 473.4194030761719, 464.7194519042969, 469.5467224121094
32.0, 32.05339813232422, 473.42437744140625, 464.72076416015625, 469.54766845703125
32.25, 32.30459976196289, 473.2200927734375, 464.52142333984375, 469.3383483886719
32.5, 32.555198669433594, 473.1285095214844, 464.5171813964844, 469.2579650878906
32.75, 32.80400085449219, 473.0688781738281, 464.49700927734375, 469.19451904296875
33.0, 33.062599182128906, 472.96795654296875, 464.4010314941406, 469.10174560546875
33.25, 33.30160140991211, 472.96087646484375, 464.3415832519531, 469.09130859375
33.5, 33.55540084838867, 472.9239196777344, 464.2438659667969, 469.0639953613281
33.75, 33.802799224853516, 472.9530334472656, 464.1890563964844, 469.0838928222656
34.0, 34.0536003112793, 472.9505310058594, 464.1127624511719, 469.084716796875
34.25, 34.30419921875, 473.01361083984375, 464.0928955078125, 469.140380859375
34.5, 34.55540084838867, 472.96392822265625, 463.98779296875, 469.09844970703125
34.75, 34.8026008605957, 472.9377746582031, 463.90679931640625, 469.0713195800781
35.0, 35.0536003112793, 472.984375, 463.90576171875, 469.1135559082031
35.25, 35.30440139770508, 472.9814758300781, 463.8659362792969, 469.11236572265625
35.5, 35.553199768066406, 473.0042724609375, 463.86566162109375, 469.14239501953125
35.75, 35.802398681640625, 473.0451354980469, 463.880859375, 469.17681884765625
36.0, 36.05459976196289, 473.0472106933594, 463.86676025390625, 469.1791076660156
36.25, 36.30179977416992, 473.02642822265625, 463.8439025878906, 469.1613464355469
36.5, 36.55419921875, 473.0449523925781, 463.85272216796875, 469.1761474609375
36.75, 36.801998138427734, 473.05419921875, 463.85040283203125, 469.1795654296875
37.0, 37.05580139160156, 473.0038757324219, 463.81280517578125, 469.1390075683594
37.25, 37.30440139770508, 473.0613708496094, 463.8731994628906, 469.2015075683594
37.5, 37.5547981262207, 473.0559387207031, 463.8662414550781, 469.188232421875
37.75, 37.81480026245117, 473.0688171386719, 463.88134765625, 469.2032775878906
38.0, 38.0526008605957, 473.0562744140625, 463.87237548828125, 469.19073486328125
38.25, 38.3026008605957, 473.0238342285156, 463.84521484375, 469.1572570800781
38.5, 38.552799224853516, 473.05279541015625, 463.8802795410156, 469.1932678222656
38.75, 38.80440139770508, 473.0576171875, 463.874755859375, 469.1849060058594
39.0, 39.05400085449219, 473.0719299316406, 463.89520263671875, 469.2100830078125
39.25, 39.3047981262207, 473.0609436035156, 463.890380859375, 469.1977844238281
39.5, 39.553001403808594, 473.0961608886719, 463.92279052734375, 469.2289123535156
39.75, 39.80379867553711, 473.0858459472656, 463.9167175292969, 469.2217712402344
40.0, 40.06340026855469, 473.0704345703125, 463.89617919921875, 469.2000427246094
40.25, 40.3026008605957, 473.0302429199219, 463.8499755859375, 469.1633605957031
40.5, 40.552398681640625, 472.8978271484375, 463.7850036621094, 469.03082275390625
40.75, 40.80179977416992, 472.6822814941406, 463.6450500488281, 468.8242492675781
41.0, 41.05339813232422, 472.7366638183594, 463.6820983886719, 468.8688659667969
41.25, 41.3026008605957, 472.66400146484375, 463.5890197753906, 468.8029479980469
41.5, 41.552398681640625, 472.6263732910156, 463.49212646484375, 468.7620849609375
41.75, 41.80500030517578, 472.64959716796875, 463.4490966796875, 468.7870178222656
42.0, 42.053001403808594, 472.6809387207031, 463.4104309082031, 468.8208923339844
42.25, 42.302799224853516, 472.6634826660156, 463.33123779296875, 468.80474853515625
42.5, 42.552398681640625, 472.65185546875, 463.2575988769531, 468.79034423828125
42.75, 42.8047981262207, 472.6398620605469, 463.20465087890625, 468.7818603515625
43.0, 43.051998138427734, 472.6468505859375, 463.1651916503906, 468.7914123535156
43.25, 43.3036003112793, 472.66595458984375, 463.1497497558594, 468.80596923828125
43.5, 43.55459976196289, 472.68804931640625, 463.1437683105469, 468.8277893066406
43.75, 43.80379867553711, 472.7235107421875, 463.15252685546875, 468.8578186035156
44.0, 44.05379867553711, 472.7181396484375, 463.1428527832031, 468.8622131347656
44.25, 44.301998138427734, 472.7325134277344, 463.15277099609375, 468.87725830078125
44.5, 44.555198669433594, 472.72247314453125, 463.13037109375, 468.8641662597656
44.75, 44.80580139160156, 472.7400207519531, 463.14862060546875, 468.8816223144531
45.0, 45.053001403808594, 472.6878662109375, 463.091796875, 468.8246765136719
45.25, 45.30459976196289, 472.71484375, 463.1191101074219, 468.8544616699219
45.5, 45.55739974975586, 472.72265625, 463.1274719238281, 468.86663818359375
45.75, 45.80379867553711, 472.7421875, 463.1460876464844, 468.8785705566406
46.0, 46.05699920654297, 472.7651062011719, 463.17327880859375, 468.904541015625
46.25, 46.3036003112793, 472.78387451171875, 463.2025451660156, 468.93109130859375
46.5, 46.55379867553711, 472.7129211425781, 463.1293640136719, 468.8527526855469
46.75, 46.80220031738281, 472.72430419921875, 463.14630126953125, 468.86676025390625
47.0, 47.05379867553711, 472.71221923828125, 463.1341552734375, 468.85577392578125
47.25, 47.302799224853516, 472.7722473144531, 463.1798400878906, 468.900634765625
47.5, 47.552799224853516, 472.70526123046875, 463.12353515625, 468.844970703125
47.75, 47.80160140991211, 477.3019104003906, 467.1105651855469, 475.1592712402344
48.0, 48.055599212646484, 475.7687072753906, 464.834716796875, 475.2619323730469
48.25, 48.30220031738281, 475.5615234375, 464.49267578125, 475.4183349609375
48.5, 48.553001403808594, 475.45440673828125, 464.31317138671875, 475.41925048828125
48.75, 48.80179977416992, 475.25494384765625, 464.03936767578125, 475.4854736328125
49.0, 49.053199768066406, 475.0884094238281, 463.7685241699219, 475.6056213378906
49.25, 49.3026008605957, 474.9601135253906, 463.5210266113281, 475.78765869140625
49.5, 49.55339813232422, 474.78582763671875, 463.2389831542969, 475.9119567871094
49.75, 49.80339813232422, 474.7001953125, 463.056396484375, 476.077392578125
50.0, 50.05339813232422, 474.5495300292969, 462.7848205566406, 476.15618896484375
50.25, 50.30699920654297, 474.4103088378906, 462.551513671875, 476.21295166015625
50.5, 50.55179977416992, 474.3162841796875, 462.3477478027344, 476.2987365722656
50.75, 50.80160140991211, 474.2278137207031, 462.1546325683594, 476.3465881347656
51.0, 51.05400085449219, 474.16229248046875, 461.9912414550781, 476.403564453125
51.25, 51.30459976196289, 474.1064453125, 461.84930419921875, 476.4498291015625
51.5, 51.55339813232422, 474.06341552734375, 461.70770263671875, 476.47418212890625
51.75, 51.802398681640625, 474.07958984375, 461.6350402832031, 476.5431213378906
52.0, 52.0547981262207, 474.01922607421875, 461.4945373535156, 476.5268249511719
52.25, 52.30440139770508, 473.9807434082031, 461.3900451660156, 476.5224304199219
52.5, 52.553199768066406, 473.91741943359375, 461.2724609375, 476.4910583496094
52.75, 52.80440139770508, 473.946533203125, 461.23406982421875, 476.5436096191406
53.0, 53.055198669433594, 473.94500732421875, 461.1792297363281, 476.55389404296875
53.25, 53.30440139770508, 473.9742736816406, 461.16693115234375, 476.59368896484375
53.5, 53.552799224853516, 473.9741516113281, 461.1277160644531, 476.5986328125
53.75, 53.8026008605957, 474.0413513183594, 461.15753173828125, 476.6765441894531
54.0, 54.05379867553711, 473.9176330566406, 461.01904296875, 476.562744140625
54.25, 54.3026008605957, 473.946044921875, 461.0240173339844, 476.6023864746094
54.5, 54.55440139770508, 473.9579772949219, 461.0263366699219, 476.6275939941406
54.75, 54.80440139770508, 473.9580078125, 461.0135192871094, 476.633544921875
55.0, 55.05540084838867, 473.93463134765625, 460.9789733886719, 476.6182861328125
55.25, 55.302398681640625, 473.9900207519531, 461.0226135253906, 476.6829528808594
55.5, 55.55339813232422, 473.96026611328125, 460.98858642578125, 476.6570739746094
55.75, 55.80160140991211, 473.9275207519531, 460.9586181640625, 476.64349365234375
56.0, 56.052799224853516, 473.8863830566406, 460.913330078125, 476.59747314453125
56.25, 56.30540084838867, 473.929931640625, 460.94903564453125, 476.6544494628906
56.5, 56.5547981262207, 473.89178466796875, 460.9117431640625, 476.6302490234375
56.75, 56.80500030517578, 473.8450012207031, 460.8876953125, 476.65374755859375
57.0, 57.05400085449219, 473.7038269042969, 460.759521484375, 476.5798645019531
57.25, 57.302398681640625, 473.73736572265625, 460.78887939453125, 476.64532470703125
57.5, 57.55379867553711, 473.7572937011719, 460.7879638671875, 476.6796569824219
57.75, 57.805198669433594, 473.7219543457031, 460.7320861816406, 476.6397705078125
58.0, 58.05339813232422, 473.734619140625, 460.7147216796875, 476.63330078125
58.25, 58.3026008605957, 473.77191162109375, 460.71417236328125, 476.65130615234375
58.5, 58.555599212646484, 473.78515625, 460.69476318359375, 476.626220703125
58.75, 58.80500030517578, 473.78765869140625, 460.6710205078125, 476.6026611328125
59.0, 59.053001403808594, 473.8340759277344, 460.7011413574219, 476.6272277832031
59.25, 59.30220031738281, 473.81976318359375, 460.6732177734375, 476.5999450683594
59.5, 59.55580139160156, 473.7908935546875, 460.63482666015625, 476.5497741699219
59.75, 59.80179977416992, 473.79925537109375, 460.6256408691406, 476.5383605957031
60.0, 60.052799224853516, 473.8578796386719, 460.67486572265625, 476.5859069824219
