Time, Timer, measurement1.Three-phase Meter1.VLn_RMS, measurement2.Three-phase Meter2.VLn_RMS, measurement3.Three-phase Meter3.VLn_RMS
0.25, 0.295199990272522, 438.3346862792969, 434.9775085449219, 434.5859680175781
0.5, 0.5547999739646912, 643.638671875, 638.75, 638.1822509765625
0.75, 0.7950000166893005, 491.6409912109375, 487.8890075683594, 487.4520568847656
1.0, 1.080199956893921, 284.99993896484375, 282.7901306152344, 282.531982421875
1.25, 1.2965999841690063, 448.5385437011719, 445.10546875, 444.7052307128906
1.5, 1.5470000505447388, 603.45458984375, 598.86865234375, 598.3363037109375
1.75, 1.7971999645233154, 486.22003173828125, 482.5453186035156, 482.0909118652344
2.0, 2.0473999977111816, 304.17327880859375, 301.87164306640625, 301.5574951171875
2.25, 2.297600030899048, 455.26531982421875, 451.9278564453125, 451.4351806640625
2.5, 2.5483999252319336, 572.8700561523438, 568.7225952148438, 568.091064453125
2.75, 2.809799909591675, 479.649169921875, 476.1829528808594, 475.6384582519531
3.0, 3.063199996948242, 375.8398742675781, 373.07470703125, 372.6581115722656
3.25, 3.315000057220459, 464.43524169921875, 461.0548095703125, 460.53851318359375
3.5, 3.5745999813079834, 532.7183227539062, 528.877197265625, 528.2749633789062
3.75, 3.8148000240325928, 475.8390197753906, 472.4024353027344, 471.8592834472656
4.0, 4.063199996948242, 408.8702087402344, 405.8779296875, 405.4238586425781
4.25, 4.311999797821045, 828.7999877929688, 822.5813598632812, 821.8530883789062
4.5, 4.5605998039245605, 510.9285583496094, 507.2412109375, 506.66259765625
4.75, 4.811399936676025, 231.34124755859375, 230.04347229003906, 229.77426147460938
5.0, 5.0605998039245605, 434.2239685058594, 431.05584716796875, 430.5730285644531
5.25, 5.311399936676025, 728.7738647460938, 723.46240234375, 722.6904296875
5.5, 5.563600063323975, 496.1210632324219, 492.5368347167969, 491.97515869140625
5.75, 5.810200214385986, 232.0069580078125, 230.2500762939453, 229.9950408935547
6.0, 6.062600135803223, 448.1810302734375, 444.92388916015625, 444.4206237792969
6.25, 6.31279993057251, 617.7557373046875, 613.3133544921875, 612.6231079101562
6.5, 6.560800075531006, 486.1898193359375, 482.68218994140625, 482.126220703125
6.75, 6.81220006942749, 340.53387451171875, 338.03729248046875, 337.6523742675781
7.0, 7.0605998039245605, 458.60064697265625, 455.2518615722656, 454.7481994628906
7.25, 7.3144001960754395, 560.934814453125, 556.8775634765625, 556.2531127929688
7.5, 7.564199924468994, 478.64599609375, 475.19140625, 474.64459228515625
7.75, 7.8105998039245605, 391.0877380371094, 388.2274475097656, 387.79156494140625
8.0, 8.060600280761719, 465.17620849609375, 461.7759704589844, 461.267578125
8.25, 8.3149995803833, 525.4259643554688, 521.6223754882812, 521.0357666015625
8.5, 8.565400123596191, 360.9002990722656, 359.01593017578125, 358.6519470214844
8.75, 8.810999870300293, 422.8710021972656, 419.7816467285156, 419.3114929199219
9.0, 9.064000129699707, 772.4209594726562, 766.7537231445312, 765.9386596679688
9.25, 9.310799598693848, 505.4797668457031, 501.8301086425781, 501.2586669921875
9.5, 9.560600280761719, 230.28607177734375, 228.49183654785156, 228.2749786376953
9.75, 9.811400413513184, 442.771240234375, 439.552001953125, 439.0564270019531
10.0, 10.063599586486816, 654.230224609375, 649.5172119140625, 648.7991333007812
10.25, 10.311400413513184, 490.41693115234375, 486.87872314453125, 486.3189392089844
10.5, 10.563199996948242, 318.8173522949219, 316.4388122558594, 316.0935363769531
10.75, 10.810199737548828, 455.22698974609375, 451.91009521484375, 451.40655517578125
11.0, 11.063199996948242, 583.8873901367188, 579.690185546875, 579.0316162109375
11.25, 11.311599731445312, 481.05682373046875, 477.5855712890625, 477.0359802246094
11.5, 11.562000274658203, 376.992431640625, 374.2392272949219, 373.8118591308594
11.75, 11.810799598693848, 462.8683166503906, 459.49114990234375, 458.9819030761719
12.0, 12.062399864196777, 493.7655944824219, 468.2243957519531, 489.5755615234375
12.25, 12.311200141906738, 485.0519714355469, 473.54046630859375, 480.9373474121094
12.5, 12.560600280761719, 481.55242919921875, 478.8514404296875, 477.4930725097656
12.75, 12.810999870300293, 477.7213439941406, 480.3274841308594, 473.7188720703125
13.0, 13.063400268554688, 455.11138916015625, 488.8846435546875, 451.3581848144531
13.25, 13.310999870300293, 463.1333923339844, 483.3955993652344, 459.3309326171875
13.5, 13.560799598693848, 466.7386779785156, 478.2132568359375, 462.90985107421875
13.75, 13.8100004196167, 469.1833190917969, 474.3751525878906, 465.3397216796875
14.0, 14.060400009155273, 470.4334716796875, 471.5797119140625, 466.5846252441406
14.25, 14.311599731445312, 471.0927429199219, 469.07257080078125, 467.2432556152344
14.5, 14.562399864196777, 471.50140380859375, 467.0683288574219, 467.6523132324219
14.75, 14.811800003051758, 471.8301696777344, 465.612060546875, 467.9806213378906
15.0, 15.060400009155273, 520.7365112304688, 476.9874267578125, 516.44189453125
15.25, 15.312199592590332, 484.5531005859375, 455.30950927734375, 480.5550537109375
15.5, 15.560600280761719, 479.3302307128906, 459.7386169433594, 475.38922119140625
15.75, 15.8100004196167, 475.7701416015625, 461.6608581542969, 471.8660888671875
16.0, 16.06439971923828, 371.3995361328125, 397.13250732421875, 368.6914978027344
16.25, 16.310800552368164, 458.491455078125, 473.3853454589844, 454.7859191894531
16.5, 16.56279945373535, 463.7117004394531, 467.87237548828125, 459.9520568847656
16.75, 16.81100082397461, 467.62652587890625, 465.4643249511719, 463.8257751464844
17.0, 17.060400009155273, 470.49774169921875, 464.28240966796875, 466.6665954589844
17.25, 17.311599731445312, 541.5715942382812, 495.7277526855469, 536.8857421875
17.5, 17.563600540161133, 485.5362243652344, 454.1761474609375, 481.5211486816406
17.75, 17.812400817871094, 480.35968017578125, 459.2449645996094, 476.4007263183594
18.0, 18.061599731445312, 476.7369079589844, 461.6178894042969, 472.81695556640625
18.25, 18.312599182128906, 424.1011047363281, 401.1761474609375, 421.6932373046875
18.5, 18.562400817871094, 455.51513671875, 474.8790588378906, 451.84075927734375
18.75, 18.811399459838867, 462.43646240234375, 469.6678161621094, 458.6886901855469
19.0, 19.060400009155273, 466.6792907714844, 466.5362548828125, 462.88519287109375
19.25, 19.31279945373535, 469.8990173339844, 464.98065185546875, 466.0715026855469
19.5, 19.562599182128906, 734.3478393554688, 712.7162475585938, 728.250244140625
19.75, 19.813800811767578, 488.4505310058594, 452.7074279785156, 484.3951416015625
20.0, 20.06100082397461, 482.6314697265625, 458.13848876953125, 478.6451110839844
20.25, 20.311599731445312, 478.0838317871094, 461.3153381347656, 474.1454772949219
20.5, 20.56220054626465, 475.1161804199219, 462.73614501953125, 471.21221923828125
20.75, 20.81399917602539, 439.4449157714844, 463.39019775390625, 435.9496154785156
21.0, 21.071800231933594, 460.80621337890625, 471.783935546875, 457.0772399902344
21.25, 21.31399917602539, 465.313232421875, 467.5445556640625, 461.532958984375
21.5, 21.561199188232422, 469.0408935546875, 465.49169921875, 465.2221984863281
21.75, 21.812000274658203, 471.2793273925781, 464.53350830078125, 467.43731689453125
22.0, 22.060400009155273, 494.1011047363281, 454.17041015625, 489.98651123046875
22.25, 22.310199737548828, 484.0890808105469, 456.6789855957031, 480.0906066894531
22.5, 22.563400268554688, 479.2599182128906, 460.6517333984375, 475.31304931640625
22.75, 22.816600799560547, 475.750244140625, 462.4801940917969, 471.8404541015625
23.0, 23.06399917602539, 371.52874755859375, 396.8164367675781, 368.81634521484375
23.25, 23.311399459838867, 458.90594482421875, 474.03497314453125, 455.19256591796875
23.5, 23.566600799560547, 464.15142822265625, 468.49774169921875, 460.3843994140625
23.75, 23.822599411010742, 468.219482421875, 465.8902893066406, 464.40936279296875
24.0, 24.063400268554688, 470.79583740234375, 464.7444763183594, 466.9586486816406
24.25, 24.311399459838867, 524.57958984375, 479.79962158203125, 520.103271484375
24.5, 24.56100082397461, 485.8982238769531, 454.7085876464844, 481.8765869140625
24.75, 24.809999465942383, 480.737548828125, 459.735107421875, 477.0913391113281
25.0, 25.061800003051758, 477.0089416503906, 461.9577941894531, 473.085693359375
25.25, 25.31279945373535, 474.5531921386719, 463.3751525878906, 470.6566162109375
25.5, 25.563800811767578, 452.8926696777344, 474.2178039550781, 449.2501220703125
25.75, 25.81399917602539, 462.2347717285156, 470.8084716796875, 458.4933776855469
26.0, 26.06060028076172, 466.5888671875, 467.23455810546875, 462.7977600097656
26.25, 26.310199737548828, 470.0234680175781, 465.48541259765625, 466.1959228515625
26.5, 26.56220054626465, 734.4259643554688, 712.7999877929688, 728.22119140625
26.75, 26.813600540161133, 488.7345886230469, 452.998046875, 484.67529296875
27.0, 27.063600540161133, 482.6703796386719, 458.7251281738281, 478.6830749511719
27.25, 27.310400009155273, 478.5207824707031, 461.6089782714844, 474.5802307128906
27.5, 27.56279945373535, 475.41162109375, 463.0917053222656, 471.5040283203125
27.75, 27.811800003051758, 420.3646240234375, 445.35693359375, 417.2478332519531
28.0, 28.06879997253418, 460.4978942871094, 472.9403381347656, 456.7779846191406
28.25, 28.311399459838867, 465.14068603515625, 468.24847412109375, 461.3683166503906
28.5, 28.561199188232422, 469.0598449707031, 465.9534912109375, 465.2449645996094
28.75, 28.809799194335938, 471.477783203125, 464.9224853515625, 467.63555908203125
29.0, 29.061800003051758, 495.6164245605469, 455.2763366699219, 491.44769287109375
29.25, 29.312400817871094, 484.6542053222656, 456.82666015625, 480.6454162597656
29.5, 29.561199188232422, 479.7986755371094, 460.87091064453125, 475.8436279296875
29.75, 29.809999465942383, 476.475341796875, 462.6705322265625, 472.5574035644531
30.0, 30.06100082397461, 236.01513671875, 252.8095703125, 235.40811157226562
30.25, 30.310400009155273, 457.58197021484375, 475.4162292480469, 453.8990173339844
30.5, 30.561199188232422, 463.53125, 469.60650634765625, 459.7799072265625
30.75, 30.810800552368164, 467.656005859375, 466.6956481933594, 463.85833740234375
31.0, 31.060199737548828, 470.75146484375, 465.2427062988281, 466.9223937988281
31.25, 31.31399917602539, 532.28125, 487.679931640625, 527.3389282226562
31.5, 31.56100082397461, 486.36676025390625, 454.8330078125, 482.33123779296875
31.75, 31.810199737548828, 481.2071838378906, 459.93634033203125, 477.2323913574219
32.0, 32.06520080566406, 477.47332763671875, 462.2089538574219, 473.5401611328125
32.25, 32.31060028076172, 474.7714538574219, 463.3960266113281, 470.8701477050781
32.5, 32.5614013671875, 450.51202392578125, 472.61199951171875, 446.96221923828125
32.75, 32.80979919433594, 461.96697998046875, 471.17529296875, 458.23388671875
33.0, 33.06119918823242, 466.4278564453125, 467.4292907714844, 462.644775390625
33.25, 33.31079864501953, 470.037353515625, 465.6557922363281, 466.21588134765625
33.5, 33.56380081176758, 712.7135620117188, 678.348388671875, 705.6587524414062
33.75, 33.8114013671875, 488.8406677246094, 453.1102294921875, 484.76739501953125
34.0, 34.06719970703125, 482.7560119628906, 458.7761535644531, 478.7633361816406
34.25, 34.311798095703125, 478.6188659667969, 461.6540832519531, 474.67242431640625
34.5, 34.5614013671875, 475.528076171875, 463.146240234375, 471.61895751953125
34.75, 34.80979919433594, 413.4222717285156, 437.9751892089844, 410.4212341308594
35.0, 35.063201904296875, 460.38311767578125, 473.193359375, 456.6681823730469
35.25, 35.3135986328125, 465.0722351074219, 468.39862060546875, 461.30108642578125
35.5, 35.5629997253418, 469.0661315917969, 466.06304931640625, 465.2519226074219
35.75, 35.811798095703125, 471.4996032714844, 464.9866027832031, 467.65789794921875
36.0, 36.063201904296875, 495.5917053222656, 455.34228515625, 491.42523193359375
36.25, 36.31159973144531, 484.69219970703125, 456.8509216308594, 480.68121337890625
36.5, 36.561798095703125, 479.8601989746094, 460.90789794921875, 475.9052734375
36.75, 36.812801361083984, 476.3515625, 462.7904968261719, 472.4322814941406
37.0, 37.06119918823242, 236.52841186523438, 250.95620727539062, 235.92001342773438
37.25, 37.312198638916016, 458.3267822265625, 475.197265625, 454.64337158203125
37.5, 37.56560134887695, 463.63006591796875, 469.6714172363281, 459.872802734375
37.75, 37.82279968261719, 467.9864807128906, 466.6056213378906, 464.1879577636719
38.0, 38.06079864501953, 470.7986145019531, 465.2606506347656, 466.96917724609375
38.25, 38.31159973144531, 532.3668212890625, 488.4867248535156, 527.2647094726562
38.5, 38.5629997253418, 486.42889404296875, 454.841064453125, 482.3890075683594
38.75, 38.812801361083984, 481.278564453125, 459.97705078125, 477.2987060546875
39.0, 39.0614013671875, 477.53656005859375, 462.25250244140625, 473.599853515625
39.25, 39.30979919433594, 474.834228515625, 463.43023681640625, 470.9315185546875
39.5, 39.562198638916016, 448.9658508300781, 473.5531005859375, 445.4135437011719
39.75, 39.812801361083984, 461.83099365234375, 471.40802001953125, 458.0884704589844
40.0, 40.06880187988281, 466.6211242675781, 467.38616943359375, 462.830810546875
40.25, 40.31039810180664, 469.9358825683594, 465.69110107421875, 466.1108703613281
40.5, 40.5620002746582, 723.9862060546875, 696.7227783203125, 717.418701171875
40.75, 40.812400817871094, 489.2321472167969, 453.0205078125, 485.16949462890625
41.0, 41.06079864501953, 482.9671630859375, 458.6407775878906, 478.97698974609375
41.25, 41.30979919433594, 478.7922668457031, 461.6081237792969, 474.85113525390625
41.5, 41.562400817871094, 475.5976867675781, 463.07916259765625, 471.68841552734375
41.75, 41.81060028076172, 403.7930603027344, 427.7591247558594, 400.87237548828125
42.0, 42.06399917602539, 460.05096435546875, 473.2742614746094, 456.2796936035156
42.25, 42.31060028076172, 464.7836608886719, 468.376953125, 460.9515686035156
42.5, 42.562198638916016, 468.82806396484375, 465.98516845703125, 464.94488525390625
42.75, 42.81340026855469, 471.44305419921875, 464.836669921875, 467.3908386230469
43.0, 43.062198638916016, 495.5162353515625, 455.35284423828125, 491.275146484375
43.25, 43.31119918823242, 484.5766906738281, 457.0999755859375, 480.4925842285156
43.5, 43.56100082397461, 480.1036376953125, 461.1259460449219, 476.1155090332031
43.75, 43.8114013671875, 476.4557800292969, 462.8636474609375, 472.5305480957031
44.0, 44.0629997253418, 236.16444396972656, 249.032470703125, 235.54486083984375
44.25, 44.31060028076172, 458.3237609863281, 475.1703186035156, 454.6324462890625
44.5, 44.56100082397461, 463.6351623535156, 469.6617431640625, 459.8795166015625
44.75, 44.8114013671875, 468.0074157714844, 466.5991516113281, 464.2052307128906
45.0, 45.060001373291016, 470.8608093261719, 465.29144287109375, 467.02838134765625
45.25, 45.310001373291016, 540.5883178710938, 496.81982421875, 535.46484375
45.5, 45.56380081176758, 486.6249694824219, 455.0657958984375, 482.5860290527344
45.75, 45.80979919433594, 481.4494934082031, 459.8611145019531, 477.47393798828125
46.0, 46.06100082397461, 477.6558837890625, 462.1731872558594, 473.72589111328125
46.25, 46.313201904296875, 474.9224548339844, 463.4141540527344, 471.0195007324219
46.5, 46.5614013671875, 447.1251525878906, 472.5887756347656, 443.6044921875
46.75, 46.812400817871094, 461.6762390136719, 471.6044616699219, 457.9368896484375
47.0, 47.06420135498047, 466.5013427734375, 467.4809265136719, 462.7116394042969
47.25, 47.312400817871094, 469.83807373046875, 465.7091979980469, 466.01580810546875
47.5, 47.56019973754883, 723.6065673828125, 696.7030029296875, 717.036865234375
47.75, 47.81119918823242, 489.16253662109375, 453.0000305175781, 485.09820556640625
48.0, 48.062198638916016, 482.9402160644531, 458.6427917480469, 478.95379638671875
48.25, 48.30979919433594, 478.7730712890625, 461.5986022949219, 474.8273010253906
48.5, 48.56159973144531, 475.635986328125, 463.1225891113281, 471.7286682128906
48.75, 48.81100082397461, 413.63250732421875, 437.2876892089844, 410.42730712890625
49.0, 49.062801361083984, 460.4534912109375, 473.2124938964844, 456.7325134277344
49.25, 49.313201904296875, 465.4612731933594, 468.2071533203125, 461.6850280761719
49.5, 49.56019973754883, 469.0986022949219, 466.0547790527344, 465.28155517578125
49.75, 49.81039810180664, 471.5381164550781, 464.9331970214844, 467.6940612792969
50.0, 50.0620002746582, 494.3712463378906, 454.6483154296875, 490.2601623535156
50.25, 50.31100082397461, 484.1560363769531, 457.3996887207031, 480.1513366699219
50.5, 50.562400817871094, 479.74749755859375, 461.0129089355469, 475.7969055175781
50.75, 50.80979919433594, 476.29461669921875, 462.85552978515625, 472.3807678222656
51.0, 51.061798095703125, 291.38262939453125, 311.4967041015625, 289.5451965332031
51.25, 51.3135986328125, 458.9087829589844, 474.88116455078125, 455.19927978515625
51.5, 51.5620002746582, 463.9803771972656, 469.39788818359375, 460.2201843261719
51.75, 51.81019973754883, 468.24951171875, 466.4912414550781, 464.4419250488281
52.0, 52.06100082397461, 470.9964599609375, 465.2240295410156, 467.1582946777344
52.25, 52.31100082397461, 518.3026123046875, 475.0244140625, 513.8756713867188
52.5, 52.561798095703125, 486.1508483886719, 455.83001708984375, 482.1268310546875
52.75, 52.810001373291016, 480.99859619140625, 460.2032470703125, 477.03546142578125
53.0, 53.06100082397461, 477.0938415527344, 462.4389953613281, 473.1663513183594
53.25, 53.31019973754883, 474.71051025390625, 463.4920959472656, 470.8150939941406
53.5, 53.562198638916016, 454.8745422363281, 475.1273193359375, 451.2052307128906
53.75, 53.81060028076172, 462.3841552734375, 470.8792419433594, 458.64337158203125
54.0, 54.063201904296875, 467.04486083984375, 467.1506652832031, 463.24969482421875
54.25, 54.31039810180664, 470.2073669433594, 465.5621032714844, 466.37939453125
54.5, 54.56159973144531, 663.9210815429688, 626.7447509765625, 657.263916015625
54.75, 54.81100082397461, 488.23089599609375, 453.4031066894531, 484.1788024902344
55.0, 55.06100082397461, 482.4680480957031, 459.06256103515625, 478.48101806640625
55.25, 55.312599182128906, 478.4032287597656, 461.9466247558594, 474.4668273925781
55.5, 55.5629997253418, 475.3663024902344, 463.1985778808594, 471.4538879394531
55.75, 55.81019973754883, 424.74005126953125, 448.7485046386719, 420.80438232421875
56.0, 56.06019973754883, 466.6472473144531, 477.5259094238281, 466.27923583984375
56.25, 56.3114013671875, 471.27410888671875, 471.19683837890625, 472.5780944824219
56.5, 56.562801361083984, 473.7070617675781, 467.6864013671875, 474.7295837402344
56.75, 56.809600830078125, 601.29931640625, 548.4059448242188, 622.373046875
57.0, 57.06100082397461, 484.1329040527344, 443.9552917480469, 495.4745178222656
57.25, 57.31100082397461, 276.5652770996094, 269.963623046875, 273.81317138671875
57.5, 57.56340026855469, 458.80499267578125, 476.5715637207031, 440.7114562988281
57.75, 57.809600830078125, 464.8260803222656, 467.7645263671875, 457.3285827636719
58.0, 58.0629997253418, 466.1233825683594, 460.4219665527344, 464.0418395996094
58.25, 58.31060028076172, 497.9459533691406, 447.0472717285156, 519.7265625
58.5, 58.561798095703125, 473.61126708984375, 440.6574401855469, 483.501220703125
58.75, 58.812599182128906, 324.7308349609375, 350.55657958984375, 297.4237365722656
59.0, 59.060001373291016, 456.20159912109375, 470.57568359375, 444.7256774902344
59.25, 59.31039810180664, 459.0133361816406, 459.63677978515625, 457.4750061035156
59.5, 59.56100082397461, 460.8938293457031, 453.20440673828125, 464.23480224609375
59.75, 59.813201904296875, 599.0396728515625, 539.080322265625, 631.2672119140625
60.0, 60.062599182128906, 471.6140441894531, 430.310302734375, 490.08770751953125
