Time, Timer, measurement1.Three-phase Meter1.VLn_RMS, measurement2.Three-phase Meter2.VLn_RMS, measurement3.Three-phase Meter3.VLn_RMS
0.25, 0.29679998755455017, 470.6915588378906, 467.1012878417969, 466.6732177734375
0.5, 0.550599992275238, 469.7354431152344, 466.1473083496094, 465.7202453613281
0.75, 0.7954000234603882, 470.392578125, 466.79437255859375, 466.3665771484375
1.0, 1.0471999645233154, 470.399169921875, 466.8069763183594, 466.37933349609375
1.25, 1.295799970626831, 470.3407897949219, 466.74786376953125, 466.3201904296875
1.5, 1.544600009918213, 470.3482360839844, 466.7560119628906, 466.328369140625
1.75, 1.7954000234603882, 471.2391662597656, 467.681396484375, 467.2316589355469
2.0, 2.0471999645233154, 470.7185974121094, 467.2582702636719, 466.751220703125
2.25, 2.2964000701904297, 470.6900329589844, 467.2577209472656, 466.7319030761719
2.5, 2.547800064086914, 470.6781311035156, 467.2569274902344, 466.72491455078125
2.75, 2.796600103378296, 470.6389465332031, 467.22686767578125, 466.6929016113281
3.0, 3.046999931335449, 470.6778564453125, 467.2586669921875, 466.72393798828125
3.25, 3.293800115585327, 470.72064208984375, 467.299560546875, 466.76446533203125
3.5, 3.547600030899048, 470.69635009765625, 467.2773132324219, 466.7420959472656
3.75, 3.7960000038146973, 470.71978759765625, 467.2976989746094, 466.7624816894531
4.0, 4.046000003814697, 470.6579284667969, 467.24371337890625, 466.7084655761719
4.25, 4.295599937438965, 470.658203125, 467.2480163574219, 466.7128601074219
4.5, 4.54580020904541, 470.67523193359375, 467.2570495605469, 466.7217712402344
4.75, 4.796800136566162, 470.6415100097656, 467.22467041015625, 466.68951416015625
5.0, 5.049799919128418, 470.6597900390625, 467.2430725097656, 466.7079162597656
5.25, 5.29580020904541, 470.7439270019531, 467.3190002441406, 466.78375244140625
5.5, 5.544600009918213, 470.6771545410156, 467.263427734375, 466.7282409667969
5.75, 5.793799877166748, 470.70989990234375, 467.2897644042969, 466.75469970703125
6.0, 6.04640007019043, 470.6772766113281, 467.2537536621094, 466.7186584472656
6.25, 6.297999858856201, 470.6837463378906, 467.263916015625, 466.7288818359375
6.5, 6.547399997711182, 470.70440673828125, 467.28466796875, 466.74871826171875
6.75, 6.7993998527526855, 470.6880798339844, 467.26531982421875, 466.7302551269531
7.0, 7.046999931335449, 470.6813659667969, 467.26214599609375, 466.72705078125
7.25, 7.294000148773193, 470.731689453125, 467.306396484375, 466.7712097167969
7.5, 7.545000076293945, 470.6852111816406, 467.2639465332031, 466.7287902832031
7.75, 7.79640007019043, 470.74560546875, 467.329833984375, 466.7945251464844
8.0, 8.0447998046875, 470.7223815917969, 467.30438232421875, 466.7691345214844
8.25, 8.29740047454834, 470.69580078125, 467.2744140625, 466.7392578125
8.5, 8.550200462341309, 470.6720275878906, 467.256591796875, 466.7213134765625
8.75, 8.796199798583984, 470.69427490234375, 467.2787170410156, 466.7435302734375
9.0, 9.04699993133545, 470.7579345703125, 467.3432922363281, 466.8079528808594
9.25, 9.296600341796875, 470.7452392578125, 467.32318115234375, 466.7879333496094
9.5, 9.54419994354248, 470.7690124511719, 467.3575439453125, 466.8224182128906
9.75, 9.7947998046875, 470.7943420410156, 467.3773193359375, 466.8420715332031
10.0, 10.045000076293945, 470.7431945800781, 467.3260498046875, 466.7908630371094
10.25, 10.295000076293945, 470.7232360839844, 467.3128967285156, 466.7778015136719
10.5, 10.54520034790039, 470.7132873535156, 467.29986572265625, 466.7647399902344
10.75, 10.794400215148926, 470.7223815917969, 467.311279296875, 466.77618408203125
11.0, 11.046199798583984, 470.7082824707031, 467.2986145019531, 466.76348876953125
11.25, 11.29419994354248, 470.80029296875, 467.372802734375, 466.8375549316406
11.5, 11.54740047454834, 470.70355224609375, 467.29193115234375, 466.75677490234375
11.75, 11.79520034790039, 470.7273254394531, 467.31640625, 466.78118896484375
12.0, 12.045599937438965, 470.70037841796875, 467.28253173828125, 466.747314453125
12.25, 12.29419994354248, 470.7413024902344, 467.3285827636719, 466.794677734375
12.5, 12.54520034790039, 470.7587585449219, 467.3442687988281, 466.8090515136719
12.75, 12.796199798583984, 470.7821350097656, 467.3697204589844, 466.8343200683594
13.0, 13.05459976196289, 470.6883239746094, 467.27587890625, 466.740966796875
13.25, 13.29539966583252, 470.7662048339844, 467.35992431640625, 466.82464599609375
13.5, 13.546799659729004, 470.7824401855469, 467.369384765625, 466.8341369628906
13.75, 13.796600341796875, 470.7781066894531, 467.3568420410156, 466.82159423828125
14.0, 14.045599937438965, 470.7499084472656, 467.3291931152344, 466.79400634765625
14.25, 14.2947998046875, 470.7312927246094, 467.3157653808594, 466.78057861328125
14.5, 14.546600341796875, 470.7822265625, 467.36676025390625, 466.8315734863281
14.75, 14.79640007019043, 470.76763916015625, 467.3463134765625, 466.8105773925781
15.0, 15.04520034790039, 470.74041748046875, 467.3170166015625, 466.7818908691406
15.25, 15.29419994354248, 470.73779296875, 467.3210754394531, 466.785888671875
15.5, 15.551199913024902, 470.82330322265625, 467.4086608886719, 466.8733825683594
15.75, 15.795599937438965, 470.774658203125, 467.36248779296875, 466.82720947265625
16.0, 16.047399520874023, 470.7414855957031, 467.3216552734375, 466.786376953125
16.25, 16.295400619506836, 470.7406921386719, 467.3250427246094, 466.7897644042969
16.5, 16.5447998046875, 470.74591064453125, 467.3283386230469, 466.7930603027344
16.75, 16.7947998046875, 470.80615234375, 467.3938903808594, 466.8585510253906
17.0, 17.04680061340332, 470.79193115234375, 467.3658142089844, 466.8304443359375
17.25, 17.29319953918457, 470.76312255859375, 467.342529296875, 466.8072509765625
17.5, 17.547399520874023, 470.716552734375, 467.2938232421875, 466.7586364746094
17.75, 17.7947998046875, 470.7537841796875, 467.3377685546875, 466.8025817871094
18.0, 18.047000885009766, 470.7786865234375, 467.36370849609375, 466.82843017578125
18.25, 18.29520034790039, 470.70587158203125, 467.2880859375, 466.7530212402344
18.5, 18.546199798583984, 470.7362976074219, 467.3219909667969, 466.786865234375
18.75, 18.79640007019043, 470.7822265625, 467.3656005859375, 466.8304443359375
19.0, 19.044599533081055, 470.7624816894531, 467.33837890625, 466.80322265625
19.25, 19.29560089111328, 470.8050537109375, 467.3880310058594, 466.852783203125
19.5, 19.54520034790039, 470.7610778808594, 467.3392028808594, 466.803955078125
19.75, 19.79640007019043, 470.7763366699219, 467.3546142578125, 466.81927490234375
20.0, 20.046199798583984, 470.79205322265625, 467.3690490722656, 466.833740234375
20.25, 20.294599533081055, 470.7862854003906, 467.36798095703125, 466.8326721191406
20.5, 20.543800354003906, 470.747802734375, 467.32305908203125, 466.78778076171875
20.75, 20.79439926147461, 470.7623291015625, 467.3433532714844, 466.8080139160156
21.0, 21.045799255371094, 470.7843017578125, 467.3700866699219, 466.8348083496094
21.25, 21.295400619506836, 470.7724304199219, 467.3541259765625, 466.81884765625
21.5, 21.544200897216797, 470.74884033203125, 467.3284606933594, 466.793212890625
21.75, 21.794200897216797, 470.7861328125, 467.36749267578125, 466.832275390625
22.0, 22.050399780273438, 470.77935791015625, 467.3601989746094, 466.824951171875
22.25, 22.293399810791016, 470.76837158203125, 467.3479919433594, 466.8128662109375
22.5, 22.547000885009766, 470.7570495605469, 467.333984375, 466.7986755371094
22.75, 22.79400062561035, 470.7807312011719, 467.35736083984375, 466.8222351074219
23.0, 23.044599533081055, 470.77886962890625, 467.36138916015625, 466.8262023925781
23.25, 23.29599952697754, 470.765625, 467.34747314453125, 466.81231689453125
23.5, 23.546199798583984, 470.7762756347656, 467.35955810546875, 466.8243408203125
23.75, 23.79400062561035, 470.7705993652344, 467.3560485839844, 466.8207092285156
24.0, 24.04680061340332, 470.7955627441406, 467.37738037109375, 466.842041015625
24.25, 24.293399810791016, 470.761962890625, 467.3453674316406, 466.8100891113281
24.5, 24.5492000579834, 470.7120056152344, 467.3011474609375, 466.7657775878906
24.75, 24.794599533081055, 470.7831115722656, 467.3653259277344, 466.83001708984375
25.0, 25.043399810791016, 470.76953125, 467.3537902832031, 466.8185729980469
25.25, 25.295400619506836, 470.7939147949219, 467.3763732910156, 466.8410949707031
25.5, 25.54640007019043, 470.7576904296875, 467.3426818847656, 466.80743408203125
25.75, 25.79439926147461, 470.8149108886719, 467.3922119140625, 466.8568420410156
26.0, 26.047399520874023, 470.7900085449219, 467.3727722167969, 466.8375549316406
26.25, 26.296600341796875, 470.7436828613281, 467.3276062011719, 466.79205322265625
26.5, 26.549800872802734, 470.7904052734375, 467.3665466308594, 466.8313293457031
26.75, 26.793399810791016, 470.75750732421875, 467.3347473144531, 466.7995910644531
27.0, 27.047399520874023, 470.8151550292969, 467.3999938964844, 466.8648376464844
27.25, 27.295400619506836, 470.7645568847656, 467.3460998535156, 466.8108825683594
27.5, 27.544599533081055, 470.7308044433594, 467.31884765625, 466.7836608886719
27.75, 27.795000076293945, 470.7974548339844, 467.3800048828125, 466.8447265625
28.0, 28.04759979248047, 470.70977783203125, 467.29010009765625, 466.75482177734375
28.25, 28.294599533081055, 470.7630615234375, 467.3383483886719, 466.8030090332031
28.5, 28.546600341796875, 470.74200439453125, 467.3212585449219, 466.7859191894531
28.75, 28.795000076293945, 470.7370300292969, 467.3173828125, 466.7821044921875
29.0, 29.04800033569336, 470.83551025390625, 467.42059326171875, 466.88519287109375
29.25, 29.29319953918457, 470.78265380859375, 467.3680419921875, 466.83270263671875
29.5, 29.549400329589844, 470.822265625, 467.39495849609375, 466.8596496582031
29.75, 29.792800903320312, 470.75177001953125, 467.3335266113281, 466.79827880859375
30.0, 30.047199249267578, 470.7382507324219, 467.318603515625, 466.78338623046875
30.25, 30.29640007019043, 470.7342224121094, 467.31146240234375, 466.77630615234375
30.5, 30.54439926147461, 470.7779541015625, 467.36553955078125, 466.830322265625
30.75, 30.794200897216797, 470.7743835449219, 467.3601989746094, 466.82574462890625
31.0, 31.047399520874023, 470.7269592285156, 467.3111877441406, 466.7760314941406
31.25, 31.29520034790039, 470.7380065917969, 467.3185729980469, 466.7834167480469
31.5, 31.547199249267578, 470.78326416015625, 467.3563537597656, 466.8211364746094
31.75, 31.79400062561035, 470.7689514160156, 467.35614013671875, 466.82080078125
32.0, 32.0447998046875, 470.7520446777344, 467.3337097167969, 466.8002014160156
32.25, 32.29560089111328, 470.8099670410156, 467.39166259765625, 466.8559875488281
32.5, 32.545799255371094, 470.8150939941406, 467.39593505859375, 466.8594970703125
32.75, 32.7947998046875, 470.75335693359375, 467.33233642578125, 466.79833984375
33.0, 33.049800872802734, 470.7991027832031, 467.37347412109375, 466.8382568359375
33.25, 33.29359817504883, 470.7903137207031, 467.37261962890625, 466.8364562988281
33.5, 33.5442008972168, 470.7275085449219, 467.3052062988281, 466.7724609375
33.75, 33.7947998046875, 470.7850036621094, 467.3671569824219, 466.8315124511719
34.0, 34.047401428222656, 470.7918395996094, 467.3717956542969, 466.83551025390625
34.25, 34.29499816894531, 470.7309875488281, 467.31170654296875, 466.7768859863281
34.5, 34.546199798583984, 470.79669189453125, 467.3767395019531, 466.8414306640625
34.75, 34.79779815673828, 470.6803894042969, 467.2655334472656, 466.7297058105469
35.0, 35.04499816894531, 470.7513427734375, 467.3286437988281, 466.7937316894531
35.25, 35.29439926147461, 470.77496337890625, 467.3534851074219, 466.8184814453125
35.5, 35.54520034790039, 470.7685241699219, 467.3453063964844, 466.8093566894531
35.75, 35.796199798583984, 470.7311706542969, 467.31298828125, 466.77777099609375
36.0, 36.046600341796875, 470.79510498046875, 467.3757629394531, 466.84014892578125
36.25, 36.2963981628418, 470.7665100097656, 467.349609375, 466.8134765625
36.5, 36.54399871826172, 470.744140625, 467.32525634765625, 466.79034423828125
36.75, 36.79280090332031, 470.7942199707031, 467.377197265625, 466.84185791015625
37.0, 37.04719924926758, 470.74017333984375, 467.3232421875, 466.78729248046875
37.25, 37.30459976196289, 470.78460693359375, 467.36077880859375, 466.8255615234375
37.5, 37.5463981628418, 470.8180236816406, 467.4027099609375, 466.866943359375
37.75, 37.7947998046875, 470.74017333984375, 467.33074951171875, 466.7941589355469
38.0, 38.04460144042969, 470.7593994140625, 467.3337707519531, 466.7990417480469
38.25, 38.299198150634766, 470.79608154296875, 467.3780822753906, 466.8428039550781
38.5, 38.5447998046875, 470.76544189453125, 467.34942626953125, 466.8134460449219
38.75, 38.793800354003906, 470.7523498535156, 467.3354797363281, 466.80059814453125
39.0, 39.0463981628418, 470.7890930175781, 467.36932373046875, 466.8343200683594
39.25, 39.2953987121582, 470.77783203125, 467.3635559082031, 466.8276672363281
39.5, 39.5463981628418, 470.72076416015625, 467.3011779785156, 466.76605224609375
39.75, 39.79499816894531, 470.7861328125, 467.3614196777344, 466.8258056640625
40.0, 40.046600341796875, 470.7685241699219, 467.3544006347656, 466.8177185058594
40.25, 40.296199798583984, 470.712646484375, 467.2947998046875, 466.7599792480469
40.5, 40.555999755859375, 470.6363220214844, 467.22711181640625, 466.6919860839844
40.75, 40.79460144042969, 470.77105712890625, 467.34716796875, 466.8104553222656
41.0, 41.046600341796875, 470.685546875, 467.26190185546875, 466.7268981933594
41.25, 41.296600341796875, 470.7500915527344, 467.3404846191406, 466.8056335449219
41.5, 41.5432014465332, 470.8214416503906, 467.4073791503906, 466.8706970214844
41.75, 41.7942008972168, 470.73291015625, 467.31646728515625, 466.7817687988281
42.0, 42.04520034790039, 470.7752380371094, 467.3626708984375, 466.8273620605469
42.25, 42.29520034790039, 470.7236328125, 467.3074035644531, 466.7708435058594
42.5, 42.547000885009766, 470.69097900390625, 467.27587890625, 466.7411193847656
42.75, 42.79280090332031, 470.7259826660156, 467.30938720703125, 466.77374267578125
43.0, 43.046600341796875, 470.8370361328125, 467.426513671875, 466.8899230957031
43.25, 43.293399810791016, 470.7170715332031, 467.31024169921875, 466.7752990722656
43.5, 43.54679870605469, 470.7922058105469, 467.3814392089844, 466.8459167480469
43.75, 43.79520034790039, 470.75360107421875, 467.3438720703125, 466.80718994140625
44.0, 44.0453987121582, 470.74560546875, 467.33673095703125, 466.8018798828125
44.25, 44.2963981628418, 470.7499084472656, 467.3396911621094, 466.8042907714844
44.5, 44.54499816894531, 470.7805480957031, 467.36785888671875, 466.8310852050781
44.75, 44.795799255371094, 470.6659851074219, 467.2458801269531, 466.71087646484375
45.0, 45.0447998046875, 470.7928771972656, 467.3892822265625, 466.8534851074219
45.25, 45.29240036010742, 470.77734375, 467.36724853515625, 466.8304748535156
45.5, 45.5432014465332, 470.7186584472656, 467.30029296875, 466.7655334472656
45.75, 45.79359817504883, 470.7643737792969, 467.3550109863281, 466.8196105957031
46.0, 46.04759979248047, 470.76385498046875, 467.3473815917969, 466.8112487792969
46.25, 46.2942008972168, 470.6404724121094, 467.226318359375, 466.6914367675781
46.5, 46.5442008972168, 470.7783203125, 467.3755798339844, 466.8404846191406
46.75, 46.79499816894531, 470.77923583984375, 467.3680114746094, 466.8313903808594
47.0, 47.0442008972168, 470.7391662597656, 467.32989501953125, 466.79486083984375
47.25, 47.29359817504883, 470.80230712890625, 467.391845703125, 466.8563537597656
47.5, 47.545799255371094, 470.85467529296875, 467.4411926269531, 466.9044189453125
47.75, 47.79280090332031, 470.732177734375, 467.3185119628906, 466.78375244140625
48.0, 48.046600341796875, 470.73114013671875, 467.31951904296875, 466.78424072265625
48.25, 48.296199798583984, 470.75421142578125, 467.34197998046875, 466.80517578125
48.5, 48.5442008972168, 470.7329406738281, 467.3183898925781, 466.78411865234375
48.75, 48.79779815673828, 470.7580261230469, 467.34661865234375, 466.81146240234375
49.0, 49.0453987121582, 470.7663269042969, 467.3502197265625, 466.81329345703125
49.25, 49.2942008972168, 470.7330627441406, 467.3181457519531, 466.7834777832031
49.5, 49.543800354003906, 470.7867126464844, 467.372314453125, 466.83685302734375
49.75, 49.79560089111328, 470.7937927246094, 467.3714904785156, 466.834716796875
50.0, 50.0463981628418, 470.6724548339844, 467.2549743652344, 466.7215576171875
50.25, 50.295799255371094, 470.7687072753906, 467.35369873046875, 466.818603515625
50.5, 50.54460144042969, 470.7826232910156, 467.3672790527344, 466.83056640625
50.75, 50.793399810791016, 475.5755310058594, 473.6524963378906, 471.57861328125
51.0, 51.0432014465332, 475.5589294433594, 474.09661865234375, 471.56951904296875
51.25, 51.29520034790039, 475.2749938964844, 473.91796875, 471.2742004394531
51.5, 51.547000885009766, 474.775634765625, 473.75115966796875, 470.7699279785156
51.75, 51.792999267578125, 474.0778503417969, 473.76361083984375, 470.07666015625
52.0, 52.04679870605469, 473.311767578125, 473.9561767578125, 469.3085021972656
52.25, 52.29439926147461, 472.5315856933594, 474.16357421875, 468.5298156738281
52.5, 52.546199798583984, 471.77001953125, 474.44915771484375, 467.7708740234375
52.75, 52.79600143432617, 471.2212219238281, 474.7893981933594, 467.2162170410156
53.0, 53.0547981262207, 470.6626892089844, 475.076171875, 466.66839599609375
53.25, 53.2942008972168, 470.3092041015625, 475.38018798828125, 466.3213806152344
53.5, 53.54499816894531, 469.9388122558594, 475.5663146972656, 465.95355224609375
53.75, 53.79359817504883, 469.7370910644531, 475.769775390625, 465.751953125
54.0, 54.0432014465332, 473.40863037109375, 479.1108093261719, 471.3261413574219
54.25, 54.29560089111328, 473.4443359375, 479.4485778808594, 471.2364196777344
54.5, 54.543399810791016, 472.838623046875, 479.05535888671875, 470.3390808105469
54.75, 54.79280090332031, 472.3771057128906, 478.66119384765625, 470.1691589355469
55.0, 55.04679870605469, 471.834716796875, 478.08782958984375, 470.30419921875
55.25, 55.29460144042969, 471.1667175292969, 477.4000549316406, 470.4565734863281
55.5, 55.5463981628418, 470.4627685546875, 476.8046569824219, 470.7060852050781
55.75, 55.79880142211914, 469.6978759765625, 476.1131591796875, 470.9190368652344
56.0, 56.04600143432617, 469.03265380859375, 475.4773864746094, 471.11126708984375
56.25, 56.29439926147461, 468.4281311035156, 474.91851806640625, 471.3013916015625
56.5, 56.54460144042969, 467.83551025390625, 474.33831787109375, 471.4097900390625
56.75, 56.79460144042969, 467.7892150878906, 474.2016296386719, 471.90118408203125
57.0, 57.049400329589844, 467.5722351074219, 473.8804931640625, 472.1020812988281
57.25, 57.29439926147461, 467.40789794921875, 473.5931091308594, 472.2984619140625
57.5, 57.5442008972168, 467.289794921875, 473.3291931152344, 472.4291687011719
57.75, 57.79439926147461, 467.3247375488281, 473.2266540527344, 472.6812744140625
58.0, 58.04439926147461, 467.24456787109375, 473.0383605957031, 472.7514343261719
58.25, 58.292999267578125, 467.40032958984375, 473.12518310546875, 472.9908447265625
58.5, 58.54439926147461, 467.3141784667969, 472.99542236328125, 472.95465087890625
58.75, 58.79560089111328, 467.4178466796875, 473.0915222167969, 473.0648193359375
59.0, 59.04499816894531, 467.5803527832031, 473.22967529296875, 473.2646179199219
59.25, 59.29280090332031, 467.45635986328125, 473.0980529785156, 473.14593505859375
59.5, 59.547401428222656, 467.4720764160156, 473.0747985839844, 473.2106628417969
59.75, 59.80440139770508, 467.473876953125, 473.0065612792969, 473.22564697265625
60.0, 60.04399871826172, 467.4962158203125, 472.9869689941406, 473.2845764160156
60.25, 60.29499816894531, 467.37310791015625, 472.82720947265625, 473.1934509277344
