Time, Timer, measurement1.Three-phase Meter1.VLn_RMS, measurement2.Three-phase Meter2.VLn_RMS, measurement3.Three-phase Meter3.VLn_RMS
0.25, 0.30480000376701355, 469.2530822753906, 465.667724609375, 465.23822021484375
0.5, 0.5523999929428101, 468.84954833984375, 465.2678527832031, 464.8387756347656
0.75, 0.8041999936103821, 470.5950622558594, 466.9997253417969, 466.56982421875
1.0, 1.057800054550171, 470.5827941894531, 466.9884338378906, 466.5588684082031
1.25, 1.312600016593933, 470.6554870605469, 467.05963134765625, 466.6300048828125
1.5, 1.563599944114685, 470.61981201171875, 467.02557373046875, 466.59661865234375
1.75, 1.8104000091552734, 471.47528076171875, 467.93609619140625, 467.4566345214844
2.0, 2.063199996948242, 471.02716064453125, 467.5626525878906, 467.0535583496094
2.25, 2.3125998973846436, 470.93017578125, 467.49884033203125, 466.9692687988281
2.5, 2.563999891281128, 470.9156188964844, 467.49212646484375, 466.9596862792969
2.75, 2.8096001148223877, 470.9289245605469, 467.5087585449219, 466.9735107421875
3.0, 3.063800096511841, 470.89337158203125, 467.4774475097656, 466.940673828125
3.25, 3.312999963760376, 470.9198913574219, 467.49853515625, 466.965087890625
3.5, 3.5564000606536865, 470.96356201171875, 467.54718017578125, 467.0101013183594
3.75, 3.8055999279022217, 470.8822021484375, 467.46026611328125, 466.9247741699219
4.0, 4.052999973297119, 470.8985290527344, 467.4764709472656, 466.944580078125
4.25, 4.303199768066406, 470.96954345703125, 467.55413818359375, 467.0166320800781
4.5, 4.554800033569336, 470.9350891113281, 467.51959228515625, 466.982421875
4.75, 4.807600021362305, 470.90576171875, 467.4892272949219, 466.9524230957031
5.0, 5.061999797821045, 470.988525390625, 467.5702819824219, 467.0313720703125
5.25, 5.310200214385986, 468.036376953125, 464.5581359863281, 464.0554504394531
5.5, 5.553599834442139, 471.0269470214844, 467.51605224609375, 467.0142822265625
5.75, 5.802599906921387, 470.99481201171875, 467.5672912597656, 467.0246276855469
6.0, 6.052199840545654, 471.1813659667969, 467.78948974609375, 467.2328186035156
6.25, 6.311399936676025, 470.97528076171875, 467.5586242675781, 467.0137023925781
6.5, 6.561999797821045, 471.0532531738281, 467.6650390625, 467.111572265625
6.75, 6.811800003051758, 470.8741455078125, 467.4573669433594, 466.915771484375
7.0, 7.052000045776367, 470.45733642578125, 467.03778076171875, 466.50177001953125
7.25, 7.302999973297119, 470.9569091796875, 467.5043640136719, 466.9815368652344
7.5, 7.559800148010254, 471.15472412109375, 467.73931884765625, 467.2001037597656
7.75, 7.805600166320801, 471.0030212402344, 467.5908508300781, 467.05072021484375
8.0, 8.061200141906738, 470.9244384765625, 467.4994812011719, 466.9627380371094
8.25, 8.302800178527832, 471.02069091796875, 467.60455322265625, 467.0666809082031
8.5, 8.560400009155273, 470.9916076660156, 467.5721740722656, 467.0357666015625
8.75, 8.810799598693848, 471.03045654296875, 467.6128234863281, 467.0757141113281
9.0, 9.05739974975586, 471.0222473144531, 467.6028137207031, 467.0664978027344
9.25, 9.302399635314941, 471.0437316894531, 467.6249694824219, 467.0882873535156
9.5, 9.552599906921387, 470.988525390625, 467.56951904296875, 467.0333557128906
9.75, 9.804400444030762, 471.0193176269531, 467.5998840332031, 467.0637512207031
10.0, 10.069600105285645, 470.97552490234375, 467.556396484375, 467.0203857421875
10.25, 10.321399688720703, 471.11553955078125, 467.6953430175781, 467.1593933105469
10.5, 10.571200370788574, 471.0017395019531, 467.5834045410156, 467.0475158691406
10.75, 10.82919979095459, 470.94610595703125, 467.527587890625, 466.9918518066406
11.0, 11.084400177001953, 471.0022277832031, 467.5826721191406, 467.04681396484375
11.25, 11.34119987487793, 471.0045471191406, 467.5847473144531, 467.0490417480469
11.5, 11.593600273132324, 471.0618896484375, 467.6419372558594, 467.106201171875
11.75, 11.832799911499023, 471.00482177734375, 467.58489990234375, 467.0491638183594
12.0, 12.084400177001953, 470.9823303222656, 467.5626525878906, 467.0268859863281
12.25, 12.33899974822998, 471.0036315917969, 467.58428955078125, 467.0486145019531
12.5, 12.586400032043457, 471.1034240722656, 467.6832275390625, 467.1473693847656
12.75, 12.847999572753906, 471.03155517578125, 467.6119079589844, 467.0760803222656
13.0, 13.083600044250488, 470.99700927734375, 467.5774230957031, 467.0415344238281
13.25, 13.333600044250488, 471.036376953125, 467.61651611328125, 467.0806884765625
13.5, 13.586799621582031, 470.9607238769531, 467.5415344238281, 467.0056457519531
13.75, 13.840200424194336, 471.0089416503906, 467.58929443359375, 467.0534362792969
14.0, 14.086400032043457, 471.0018615722656, 467.5831604003906, 467.0473327636719
14.25, 14.34280014038086, 471.0252685546875, 467.6054382324219, 467.0699157714844
14.5, 14.592000007629395, 471.0032958984375, 467.5837707519531, 467.0480041503906
14.75, 14.84060001373291, 471.0389709472656, 467.6187744140625, 467.0830078125
15.0, 15.083999633789062, 471.04644775390625, 467.6867980957031, 467.1368103027344
15.25, 15.34179973602295, 470.77813720703125, 467.375732421875, 466.8450622558594
15.5, 15.586999893188477, 470.9285583496094, 467.4307861328125, 466.9305419921875
15.75, 15.84160041809082, 471.0463562011719, 467.6134948730469, 467.0813903808594
16.0, 16.086999893188477, 471.0168762207031, 467.5943908691406, 467.060546875
16.25, 16.33340072631836, 471.05078125, 467.627197265625, 467.0932922363281
16.5, 16.585399627685547, 470.9840087890625, 467.5601806640625, 467.0265197753906
16.75, 16.834800720214844, 470.9925842285156, 467.5694885253906, 467.0384216308594
17.0, 17.084199905395508, 471.074462890625, 467.65069580078125, 467.1190185546875
17.25, 17.333599090576172, 471.02545166015625, 467.6092529296875, 467.072509765625
17.5, 17.588199615478516, 471.0041198730469, 467.588134765625, 467.05023193359375
17.75, 17.83340072631836, 471.03765869140625, 467.6205749511719, 467.08355712890625
18.0, 18.083799362182617, 471.077392578125, 467.6595458984375, 467.1226806640625
18.25, 18.333200454711914, 471.00079345703125, 467.5845947265625, 467.04779052734375
18.5, 18.58639907836914, 471.0111083984375, 467.5935974121094, 467.0569152832031
18.75, 18.834800720214844, 470.9918212890625, 467.5749206542969, 467.0381774902344
19.0, 19.085399627685547, 471.0459289550781, 467.6282653808594, 467.091552734375
19.25, 19.33340072631836, 470.9861755371094, 467.5741271972656, 467.03741455078125
19.5, 19.587600708007812, 471.06048583984375, 467.6425476074219, 467.10479736328125
19.75, 19.834199905395508, 470.95074462890625, 467.533935546875, 466.99493408203125
20.0, 20.0851993560791, 471.01226806640625, 467.58880615234375, 467.0538024902344
20.25, 20.334199905395508, 470.9692077636719, 467.5437316894531, 467.01153564453125
20.5, 20.584400177001953, 470.99114990234375, 467.5667419433594, 467.0333251953125
20.75, 20.836000442504883, 471.02130126953125, 467.5968017578125, 467.06298828125
21.0, 21.084800720214844, 470.9931640625, 467.56866455078125, 467.0374450683594
21.25, 21.33639907836914, 471.0537109375, 467.6319580078125, 467.100341796875
21.5, 21.584999084472656, 471.0619812011719, 467.6453857421875, 467.10736083984375
21.75, 21.834400177001953, 471.0428771972656, 467.62725830078125, 467.0898132324219
22.0, 22.086599349975586, 470.9147644042969, 467.5027770996094, 466.96697998046875
22.25, 22.333599090576172, 471.0597839355469, 467.6420593261719, 467.1053466796875
22.5, 22.583799362182617, 471.06866455078125, 467.65069580078125, 467.11395263671875
22.75, 22.832799911499023, 470.9957275390625, 467.5786437988281, 467.0419921875
23.0, 23.086200714111328, 470.6631164550781, 467.22918701171875, 466.7000427246094
23.25, 23.334400177001953, 471.1240234375, 467.7157897949219, 467.17376708984375
23.5, 23.584800720214844, 471.01153564453125, 467.6016845703125, 467.0615234375
23.75, 23.836200714111328, 470.99786376953125, 467.58099365234375, 467.0439453125
24.0, 24.08340072631836, 471.04400634765625, 467.62591552734375, 467.08917236328125
24.25, 24.334199905395508, 471.0691833496094, 467.6508483886719, 467.1139221191406
24.5, 24.586200714111328, 471.0586242675781, 467.6409606933594, 467.10406494140625
24.75, 24.835599899291992, 471.0351867675781, 467.61883544921875, 467.0818786621094
25.0, 25.085399627685547, 470.9762878417969, 467.5592956542969, 467.02215576171875
25.25, 25.334999084472656, 470.9751281738281, 467.5552978515625, 467.0162048339844
25.5, 25.586999893188477, 471.0252990722656, 467.6009521484375, 467.06695556640625
25.75, 25.835800170898438, 471.05499267578125, 467.6291198730469, 467.0967712402344
26.0, 26.0846004486084, 471.0167236328125, 467.59222412109375, 467.0588684082031
26.25, 26.3346004486084, 471.0112609863281, 467.5880432128906, 467.054443359375
26.5, 26.586599349975586, 471.2037353515625, 467.779541015625, 467.2484436035156
26.75, 26.835599899291992, 471.02117919921875, 467.6009826660156, 467.0690612792969
27.0, 27.086200714111328, 470.9410095214844, 467.5254211425781, 466.98748779296875
27.25, 27.334999084472656, 471.0866394042969, 467.6694641113281, 467.1318054199219
27.5, 27.58679962158203, 471.0121765136719, 467.5947570800781, 467.05792236328125
27.75, 27.833799362182617, 470.9908142089844, 467.5736083984375, 467.0367736816406
28.0, 28.0846004486084, 471.0279846191406, 467.6105651855469, 467.07366943359375
28.25, 28.3346004486084, 471.0877380371094, 467.6700134277344, 467.13311767578125
28.5, 28.586200714111328, 471.0310363769531, 467.6135559082031, 467.07672119140625
28.75, 28.8346004486084, 471.0331726074219, 467.614990234375, 467.07818603515625
29.0, 29.086599349975586, 471.0133056640625, 467.5959167480469, 467.0590515136719
29.25, 29.336000442504883, 471.0135192871094, 467.5960998535156, 467.0559387207031
29.5, 29.59760093688965, 471.07000732421875, 467.6492919921875, 467.11077880859375
29.75, 29.835800170898438, 471.0039978027344, 467.57818603515625, 467.0459899902344
30.0, 30.0846004486084, 470.9915771484375, 467.56732177734375, 467.03448486328125
30.25, 30.332599639892578, 471.00592041015625, 467.58154296875, 467.0479736328125
30.5, 30.587200164794922, 471.0252685546875, 467.60101318359375, 467.0679626464844
30.75, 30.834199905395508, 471.0528869628906, 467.6305236816406, 467.0993347167969
31.0, 31.097000122070312, 470.85455322265625, 467.427978515625, 466.8966369628906
31.25, 31.334999084472656, 471.0259094238281, 467.6047058105469, 467.0690002441406
31.5, 31.589000701904297, 471.0218200683594, 467.5979919433594, 467.0643615722656
31.75, 31.834999084472656, 471.0198974609375, 467.5976867675781, 467.0665588378906
32.0, 32.08420181274414, 471.02227783203125, 467.6033630371094, 467.0683898925781
32.25, 32.33380126953125, 471.0156555175781, 467.5995788574219, 467.0616149902344
32.5, 32.58380126953125, 471.0608215332031, 467.64349365234375, 467.1064147949219
32.75, 32.83300018310547, 471.050048828125, 467.6321716308594, 467.095458984375
33.0, 33.084800720214844, 471.0086975097656, 467.59149169921875, 467.0549621582031
33.25, 33.335601806640625, 471.0872497558594, 467.6682434082031, 467.13153076171875
33.5, 33.58620071411133, 471.06842041015625, 467.650634765625, 467.1138000488281
33.75, 33.83660125732422, 471.0556945800781, 467.6380310058594, 467.10125732421875
34.0, 34.08440017700195, 471.02801513671875, 467.6104736328125, 467.07366943359375
34.25, 34.33420181274414, 471.0536193847656, 467.634521484375, 467.0976257324219
34.5, 34.58580017089844, 471.0190124511719, 467.6000061035156, 467.06024169921875
34.75, 34.834598541259766, 471.0731201171875, 467.6514892578125, 467.1136474609375
35.0, 35.08359909057617, 471.0321960449219, 467.6075744628906, 467.0750732421875
35.25, 35.33319854736328, 471.0219421386719, 467.59698486328125, 467.0638122558594
35.5, 35.58679962158203, 471.0439147949219, 467.6191711425781, 467.08538818359375
35.75, 35.83440017700195, 471.0060729980469, 467.5819396972656, 467.048828125
36.0, 36.08380126953125, 477.2156066894531, 475.0543212890625, 473.2193298339844
36.25, 36.33539962768555, 475.3021240234375, 474.8666076660156, 471.3265075683594
36.5, 36.58599853515625, 474.84893798828125, 475.1676025390625, 470.8789367675781
36.75, 36.83539962768555, 474.7853088378906, 475.284423828125, 470.8166198730469
37.0, 37.08380126953125, 474.765380859375, 475.25640869140625, 470.7971496582031
37.25, 37.335601806640625, 475.2181091308594, 475.75469970703125, 471.2457580566406
37.5, 37.585201263427734, 475.12841796875, 475.7695007324219, 471.15679931640625
37.75, 37.83620071411133, 475.0690612792969, 475.78057861328125, 471.0957336425781
38.0, 38.08359909057617, 475.114501953125, 475.8739929199219, 471.1428527832031
38.25, 38.335201263427734, 475.1129150390625, 475.9054870605469, 471.1410827636719
38.5, 38.585601806640625, 475.0855407714844, 475.9102478027344, 471.11407470703125
38.75, 38.834999084472656, 475.0718994140625, 475.9202880859375, 471.1007080078125
39.0, 39.084999084472656, 475.0537414550781, 475.9079284667969, 471.0826416015625
39.25, 39.33359909057617, 475.0766296386719, 475.937255859375, 471.1053771972656
39.5, 39.58440017700195, 475.05206298828125, 475.9129333496094, 471.0810546875
39.75, 39.83660125732422, 475.0516052246094, 475.90570068359375, 471.08038330078125
40.0, 40.08359909057617, 475.1304931640625, 475.9844970703125, 471.15869140625
40.25, 40.33359909057617, 475.06597900390625, 475.9329833984375, 471.0946960449219
40.5, 40.58679962158203, 474.91290283203125, 475.7774963378906, 470.93975830078125
40.75, 40.83340072631836, 475.0428466796875, 475.9100646972656, 471.0719909667969
41.0, 41.08720016479492, 475.0146789550781, 475.87908935546875, 471.0437927246094
41.25, 41.335601806640625, 475.0426330566406, 475.8988037109375, 471.07171630859375
41.5, 41.58420181274414, 474.9980163574219, 475.8468017578125, 471.02728271484375
41.75, 41.834800720214844, 475.084228515625, 475.9329528808594, 471.1123962402344
42.0, 42.08660125732422, 475.08477783203125, 475.9422302246094, 471.1132507324219
42.25, 42.33359909057617, 475.0511779785156, 475.9171447753906, 471.0855407714844
42.5, 42.584598541259766, 475.0230712890625, 475.88385009765625, 471.0481262207031
42.75, 42.83420181274414, 475.06341552734375, 475.9187316894531, 471.0856628417969
43.0, 43.08440017700195, 475.059814453125, 475.9078063964844, 471.0848693847656
43.25, 43.334999084472656, 475.06903076171875, 475.91033935546875, 471.093994140625
43.5, 43.58639907836914, 475.0755615234375, 475.9220275878906, 471.100341796875
43.75, 43.835601806640625, 475.0730285644531, 475.9223327636719, 471.09783935546875
44.0, 44.08620071411133, 475.0361328125, 475.8895568847656, 471.0614318847656
44.25, 44.33420181274414, 475.0478515625, 475.9048156738281, 471.0728759765625
44.5, 44.58660125732422, 474.9857177734375, 475.8397216796875, 471.01177978515625
44.75, 44.834598541259766, 475.0250549316406, 475.86712646484375, 471.05029296875
45.0, 45.08639907836914, 474.93328857421875, 475.77850341796875, 470.9662170410156
45.25, 45.33340072631836, 475.0709228515625, 475.91644287109375, 471.0957946777344
45.5, 45.58359909057617, 475.08465576171875, 475.9316101074219, 471.10919189453125
45.75, 45.834598541259766, 475.0965881347656, 475.9502258300781, 471.1204833984375
46.0, 46.08539962768555, 475.06951904296875, 475.9263000488281, 471.0943603515625
46.25, 46.335201263427734, 475.046142578125, 475.8976135253906, 471.0711975097656
46.5, 46.58639907836914, 475.0464172363281, 475.8890686035156, 471.0715637207031
46.75, 46.83300018310547, 475.06329345703125, 475.898193359375, 471.0893859863281
47.0, 47.08620071411133, 475.1119689941406, 475.9510498046875, 471.1412658691406
47.25, 47.33580017089844, 474.9685363769531, 475.80615234375, 470.9914855957031
47.5, 47.58420181274414, 475.0876159667969, 475.9379577636719, 471.1161804199219
47.75, 47.83580017089844, 475.05731201171875, 475.91259765625, 471.08599853515625
48.0, 48.08580017089844, 475.03997802734375, 475.8861389160156, 471.06884765625
48.25, 48.33359909057617, 475.0455627441406, 475.8878173828125, 471.07427978515625
48.5, 48.58599853515625, 475.02850341796875, 475.868896484375, 471.0575256347656
48.75, 48.83340072631836, 475.0777893066406, 475.918212890625, 471.10650634765625
49.0, 49.08440017700195, 475.18267822265625, 476.02850341796875, 471.2102355957031
49.25, 49.33319854736328, 475.07958984375, 475.93157958984375, 471.1081848144531
49.5, 49.585201263427734, 475.1438903808594, 475.9984436035156, 471.1714172363281
49.75, 49.83539962768555, 475.0524597167969, 475.8987121582031, 471.081298828125
50.0, 50.08319854736328, 475.0356750488281, 475.8766174316406, 471.0647277832031
50.25, 50.33420181274414, 475.0693664550781, 475.9076843261719, 471.09820556640625
50.5, 50.584800720214844, 475.0416259765625, 475.8775329589844, 471.07073974609375
50.75, 50.83359909057617, 475.0912780761719, 475.936767578125, 471.1197814941406
51.0, 51.08639907836914, 475.0606689453125, 475.911865234375, 471.0894470214844
51.25, 51.33319854736328, 475.0447082519531, 475.8974304199219, 471.07342529296875
51.5, 51.58340072631836, 475.0648193359375, 475.9096984863281, 471.093505859375
51.75, 51.83599853515625, 475.12109375, 475.9621276855469, 471.149658203125
52.0, 52.08319854736328, 475.02618408203125, 475.8618469238281, 471.0551452636719
52.25, 52.33599853515625, 475.091064453125, 475.9270324707031, 471.1196594238281
52.5, 52.58599853515625, 475.0992736816406, 475.943603515625, 471.12762451171875
52.75, 52.83620071411133, 475.1083068847656, 475.9609375, 471.136474609375
53.0, 53.084999084472656, 474.9910583496094, 475.84027099609375, 471.0204162597656
53.25, 53.334999084472656, 475.0708923339844, 475.9158020019531, 471.0991516113281
53.5, 53.587398529052734, 475.1002197265625, 475.9414367675781, 471.1287536621094
53.75, 53.832801818847656, 475.0405578613281, 475.87664794921875, 471.0696716308594
54.0, 54.08639907836914, 475.1582336425781, 475.99285888671875, 471.18597412109375
54.25, 54.33639907836914, 475.093994140625, 475.941162109375, 471.12261962890625
54.5, 54.58620071411133, 475.0904846191406, 475.94073486328125, 471.119140625
54.75, 54.83440017700195, 475.07733154296875, 475.925537109375, 471.1060791015625
55.0, 55.08399963378906, 475.0448303222656, 475.8909606933594, 471.0736999511719
55.25, 55.33399963378906, 475.1070251464844, 475.9463195800781, 471.1352844238281
55.5, 55.58700180053711, 475.0186462402344, 475.85284423828125, 471.0475158691406
55.75, 55.83340072631836, 475.11541748046875, 475.9537048339844, 471.1414489746094
56.0, 56.08539962768555, 475.08514404296875, 475.93292236328125, 471.10894775390625
56.25, 56.33420181274414, 475.14056396484375, 475.99163818359375, 471.1648864746094
56.5, 56.58340072631836, 475.0745849609375, 475.92510986328125, 471.09967041015625
56.75, 56.83380126953125, 475.0430908203125, 475.8951416015625, 471.06817626953125
57.0, 57.08380126953125, 475.0295104980469, 475.8688659667969, 471.0546569824219
57.25, 57.33539962768555, 475.0299987792969, 475.86260986328125, 471.05511474609375
57.5, 57.58660125732422, 475.0292663574219, 475.8677978515625, 471.054443359375
57.75, 57.83599853515625, 477.1314392089844, 477.16888427734375, 475.2796936035156
58.0, 58.08359909057617, 476.9945068359375, 476.8265380859375, 476.278564453125
58.25, 58.33319854736328, 476.8901672363281, 476.7985534667969, 476.4077453613281
58.5, 58.584598541259766, 476.7030334472656, 476.6616516113281, 476.2550964355469
58.75, 58.832801818847656, 476.5780029296875, 476.4742431640625, 476.26123046875
59.0, 59.08359909057617, 476.5786437988281, 476.4375, 476.3103332519531
59.25, 59.33620071411133, 476.54364013671875, 476.4106140136719, 476.4028625488281
59.5, 59.58620071411133, 476.5796203613281, 476.4582214355469, 476.50067138671875
59.75, 59.97679901123047, 476.588134765625, 476.4930419921875, 476.569580078125
