Time, Timer, measurement1.Three-phase Meter1.VLn_RMS, measurement2.Three-phase Meter2.VLn_RMS, measurement3.Three-phase Meter3.VLn_RMS
0.25, 0.30000001192092896, 438.3824462890625, 435.0282287597656, 434.6363830566406
0.5, 0.5547999739646912, 632.5208740234375, 627.7197265625, 627.1640014648438
0.75, 0.8105999827384949, 487.7869873046875, 484.0664367675781, 483.63427734375
1.0, 1.070199966430664, 297.6346740722656, 295.330810546875, 295.0621032714844
1.25, 1.3109999895095825, 454.5454406738281, 451.0658264160156, 450.6607360839844
1.5, 1.565999984741211, 570.3971557617188, 566.0574951171875, 565.553466796875
1.75, 1.8154000043869019, 482.0586242675781, 478.43853759765625, 477.9639892578125
2.0, 2.072999954223633, 337.63641357421875, 335.1255798339844, 334.75994873046875
2.25, 2.3236000537872314, 462.5653991699219, 459.1778869628906, 458.6783752441406
2.5, 2.5653998851776123, 552.782470703125, 548.7808227539062, 548.16796875
2.75, 2.815999984741211, 479.08819580078125, 475.6231384277344, 475.07904052734375
3.0, 3.0657999515533447, 383.1218566894531, 380.3218688964844, 379.8899230957031
3.25, 3.3173999786376953, 873.468017578125, 866.8184814453125, 865.9661865234375
3.5, 3.5657999515533447, 524.5944213867188, 520.7993774414062, 520.211181640625
3.75, 3.8143999576568604, 405.720703125, 402.439453125, 402.0050354003906
4.0, 4.065000057220459, 418.0210876464844, 414.9712219238281, 414.5068664550781
4.25, 4.3144001960754395, 764.0970458984375, 758.53466796875, 757.721923828125
4.5, 4.5746002197265625, 500.2002258300781, 496.5818786621094, 496.0157470703125
4.75, 4.823999881744385, 206.65103149414062, 205.02090454101562, 204.81982421875
5.0, 5.072999954223633, 445.26898193359375, 442.0789489746094, 441.5862121582031
5.25, 5.321800231933594, 649.0914916992188, 644.0806274414062, 643.36962890625
5.5, 5.573599815368652, 487.6220397949219, 484.0641174316406, 483.510009765625
5.75, 5.820000171661377, 301.72698974609375, 300.0413513183594, 299.7107238769531
6.0, 6.073400020599365, 457.0687561035156, 453.8111877441406, 453.30438232421875
6.25, 6.3144001960754395, 581.2064819335938, 576.834716796875, 576.1808471679688
6.5, 6.565800189971924, 479.6457214355469, 478.1973876953125, 477.6455078125
6.75, 6.815999984741211, 366.38360595703125, 364.0675048828125, 363.65411376953125
7.0, 7.066199779510498, 464.3868408203125, 461.05352783203125, 460.53302001953125
7.25, 7.315800189971924, 543.5859985351562, 539.4105224609375, 538.793212890625
7.5, 7.567800045013428, 475.1900329589844, 471.724365234375, 471.18487548828125
7.75, 7.8155999183654785, 406.97979736328125, 404.2376403808594, 403.78338623046875
8.0, 8.066200256347656, 812.799072265625, 806.2196044921875, 805.4341430664062
8.25, 8.315400123596191, 514.4991455078125, 510.6177978515625, 510.0352783203125
8.5, 8.56659984588623, 159.62496948242188, 158.86021423339844, 158.6381378173828
8.75, 8.816399574279785, 432.828369140625, 429.8130187988281, 429.3314208984375
9.0, 9.066399574279785, 696.8055419921875, 690.985595703125, 690.2271118164062
9.25, 9.316200256347656, 492.2941589355469, 492.78570556640625, 492.22021484375
9.5, 9.56659984588623, 284.72906494140625, 283.2076110839844, 282.8904113769531
9.75, 9.815999984741211, 454.3514099121094, 451.1214599609375, 450.6161193847656
10.0, 10.072799682617188, 582.5306396484375, 596.1896362304688, 595.5281372070312
10.25, 10.315799713134766, 481.36639404296875, 477.8629150390625, 477.3172912597656
10.5, 10.573800086975098, 378.5091552734375, 375.9095153808594, 375.48004150390625
10.75, 10.814200401306152, 463.4891357421875, 460.1527404785156, 459.6327819824219
11.0, 11.066200256347656, 550.0859985351562, 545.97216796875, 545.355224609375
11.25, 11.315600395202637, 475.4311218261719, 471.984619140625, 471.4445495605469
11.5, 11.565999984741211, 405.2680358886719, 402.4251708984375, 401.9679870605469
11.75, 11.815600395202637, 844.8236694335938, 837.7844848632812, 836.9750366210938
12.0, 12.066399574279785, 518.4541015625, 514.6427612304688, 514.050537109375
12.25, 12.325200080871582, 158.11587524414062, 157.20480346679688, 156.9668426513672
12.5, 12.565799713134766, 431.6696472167969, 428.5167541503906, 428.03961181640625
12.75, 12.814200401306152, 719.8300170898438, 714.6494750976562, 713.8693237304688
13.0, 13.06779956817627, 494.2543640136719, 490.6893615722656, 490.1292724609375
13.25, 13.314399719238281, 268.2934265136719, 266.30340576171875, 265.99609375
13.5, 13.573800086975098, 451.9468688964844, 448.6564636230469, 448.1554260253906
13.75, 13.817399978637695, 624.1484375, 619.6326293945312, 618.9420166015625
14.0, 14.074199676513672, 483.590576171875, 480.095703125, 479.5477294921875
14.25, 14.314399719238281, 343.739013671875, 341.21441650390625, 340.8248596191406
14.5, 14.573399543762207, 460.92083740234375, 457.5633239746094, 457.0513610839844
14.75, 14.823200225830078, 551.5343627929688, 547.5391845703125, 546.9248657226562
15.0, 15.071599960327148, 476.93548583984375, 473.4847106933594, 472.94256591796875
15.25, 15.322999954223633, 403.9971618652344, 401.0412292480469, 400.5910949707031
15.5, 15.565400123596191, 720.995849609375, 714.6869506835938, 713.7232055664062
15.75, 15.824399948120117, 519.2924194335938, 515.5394897460938, 514.955322265625
16.0, 16.076400756835938, 155.51828002929688, 154.67111206054688, 154.4085235595703
16.25, 16.315799713134766, 430.8656921386719, 427.7372741699219, 427.251708984375
16.5, 16.574600219726562, 724.9629516601562, 719.7139892578125, 718.9325561523438
16.75, 16.815200805664062, 499.1987609863281, 495.5934753417969, 495.02886962890625
17.0, 17.066200256347656, 249.63131713867188, 247.7923583984375, 247.50782775878906
17.25, 17.315799713134766, 449.3755798339844, 446.1031494140625, 445.6038513183594
17.5, 17.564599990844727, 639.0402221679688, 634.4346313476562, 633.7301635742188
17.75, 17.814800262451172, 485.1754455566406, 481.66925048828125, 481.1185302734375
18.0, 18.065000534057617, 340.6666259765625, 338.1719055175781, 337.7870788574219
18.25, 18.31559944152832, 460.4017028808594, 457.0462951660156, 456.53546142578125
18.5, 18.57360076904297, 552.8056030273438, 548.8095703125, 548.1923217773438
18.75, 18.82360076904297, 475.3923034667969, 471.9624938964844, 471.4200439453125
19.0, 19.066600799560547, 407.5029602050781, 404.5325622558594, 404.0720520019531
19.25, 19.32360076904297, 829.346923828125, 823.1411743164062, 822.4063720703125
19.5, 19.564599990844727, 516.4998779296875, 512.7713012695312, 512.1884765625
19.75, 19.816200256347656, 153.63970947265625, 152.916015625, 152.6429443359375
20.0, 20.066200256347656, 435.7930603027344, 432.6247253417969, 432.1389465332031
20.25, 20.31599998474121, 750.8368530273438, 745.4468994140625, 744.6471557617188
20.5, 20.56559944152832, 497.0224914550781, 493.4277648925781, 492.8648986816406
20.75, 20.825199127197266, 288.18780517578125, 286.05889892578125, 285.7215881347656
21.0, 21.06760025024414, 450.7496337890625, 447.4629211425781, 446.9632263183594
21.25, 21.31760025024414, 606.6137084960938, 602.241943359375, 601.5679931640625
21.5, 21.564599990844727, 483.8789978027344, 480.38165283203125, 479.8327941894531
21.75, 21.81439971923828, 339.97796630859375, 337.484375, 337.1022644042969
22.0, 22.06559944152832, 460.2657165527344, 456.91143798828125, 456.4007873535156
22.25, 22.314800262451172, 554.0968017578125, 550.0874633789062, 549.4686279296875
22.5, 22.56999969482422, 477.0640563964844, 473.6200256347656, 473.0775451660156
22.75, 22.822399139404297, 406.4936218261719, 403.5364685058594, 403.07611083984375
23.0, 23.074600219726562, 835.4873657226562, 829.28466796875, 828.5368041992188
23.25, 23.31999969482422, 517.1050415039062, 513.3658447265625, 512.7828369140625
23.5, 23.57200050354004, 180.96705627441406, 179.5667724609375, 179.32168579101562
23.75, 23.815399169921875, 435.28778076171875, 432.112060546875, 431.6268310546875
24.0, 24.065000534057617, 733.4005126953125, 728.0575561523438, 727.269775390625
24.25, 24.31559944152832, 495.4544372558594, 491.8711853027344, 491.30963134765625
24.5, 24.565799713134766, 271.9561767578125, 269.925048828125, 269.6200256347656
24.75, 24.815200805664062, 452.1374206542969, 448.8493957519531, 448.34722900390625
25.0, 25.074399948120117, 581.1964721679688, 576.9532470703125, 576.3568115234375
25.25, 25.31599998474121, 489.791748046875, 480.43792724609375, 484.7548828125
25.5, 25.574199676513672, 429.2945556640625, 426.78350830078125, 425.6969909667969
25.75, 25.813800811767578, 830.9923095703125, 826.4943237304688, 824.1493530273438
26.0, 26.06599998474121, 502.4860534667969, 497.9188537597656, 498.2984924316406
26.25, 26.315399169921875, 215.3111114501953, 224.0335693359375, 213.4416046142578
26.5, 26.567399978637695, 454.6815185546875, 449.60211181640625, 450.9088134765625
26.75, 26.822799682617188, 612.4619750976562, 606.3284301757812, 606.8175659179688
27.0, 27.065200805664062, 489.1432800292969, 483.91339111328125, 484.9787902832031
27.25, 27.315799713134766, 357.52923583984375, 353.599609375, 354.73162841796875
27.5, 27.564800262451172, 469.9026794433594, 466.0807800292969, 466.005859375
27.75, 27.81599998474121, 530.2916870117188, 527.0562133789062, 535.4698486328125
28.0, 28.072999954223633, 165.91159057617188, 167.56005859375, 166.02357482910156
28.25, 28.322599411010742, 445.08807373046875, 443.31988525390625, 441.43438720703125
28.5, 28.573200225830078, 653.2886962890625, 652.6367797851562, 647.5186157226562
28.75, 28.820600509643555, 491.37445068359375, 490.8429260253906, 487.23687744140625
29.0, 29.064800262451172, 350.5287170410156, 349.6083679199219, 347.3518981933594
29.25, 29.322999954223633, 466.5134582519531, 466.8368835449219, 462.5216979980469
29.5, 29.56760025024414, 558.6834106445312, 560.0451049804688, 554.107666015625
29.75, 29.823999404907227, 477.0599670410156, 478.7762451171875, 473.5990295410156
30.0, 30.064800262451172, 415.46636962890625, 416.3424072265625, 411.79937744140625
30.25, 30.316200256347656, 902.552734375, 904.9869995117188, 896.8899536132812
30.5, 30.56439971923828, 519.66015625, 521.3236694335938, 515.3385009765625
30.75, 30.81399917602539, 172.18077087402344, 169.30496215820312, 169.53114318847656
31.0, 31.06599998474121, 443.7118225097656, 445.0164794921875, 439.9233093261719
31.25, 31.320199966430664, 767.3175659179688, 770.8194580078125, 762.0046997070312
31.5, 31.564599990844727, 497.8385009765625, 499.3340759277344, 493.7337951660156
31.75, 31.815399169921875, 251.83782958984375, 251.88137817382812, 249.27984619140625
32.0, 32.07360076904297, 456.0208435058594, 457.2205810546875, 452.1655578613281
32.25, 32.32320022583008, 642.3125610351562, 644.0924682617188, 636.9562377929688
32.5, 32.56639862060547, 489.47698974609375, 490.6539306640625, 485.392333984375
32.75, 32.82339859008789, 337.4757080078125, 338.14837646484375, 334.6016845703125
33.0, 33.0723991394043, 463.02630615234375, 464.0860290527344, 459.1516418457031
33.25, 33.315399169921875, 611.5778198242188, 613.0260620117188, 606.5254516601562
33.5, 33.565399169921875, 483.5812683105469, 484.57537841796875, 479.54803466796875
33.75, 33.815799713134766, 362.6355285644531, 363.3011169433594, 359.5768737792969
34.0, 34.07400131225586, 468.02532958984375, 468.9981384277344, 464.10906982421875
34.25, 34.31420135498047, 563.2650146484375, 564.4766235351562, 558.5834350585938
34.5, 34.56520080566406, 478.8623352050781, 479.7979431152344, 474.8700866699219
34.75, 34.81760025024414, 413.6723937988281, 414.48333740234375, 410.2070617675781
35.0, 35.064998626708984, 653.6172485351562, 654.857666015625, 646.1739501953125
35.25, 35.31520080566406, 522.1632690429688, 523.24658203125, 517.8195190429688
35.5, 35.56560134887695, 491.0403137207031, 492.3819580078125, 488.0977478027344
35.75, 35.821998596191406, 436.2587890625, 437.1581115722656, 432.68408203125
36.0, 36.07320022583008, 785.9223022460938, 787.880859375, 779.4863891601562
36.25, 36.32360076904297, 504.034912109375, 505.08111572265625, 499.8326416015625
36.5, 36.56560134887695, 220.2074737548828, 220.27362060546875, 218.2759246826172
36.75, 36.82040023803711, 451.0796203613281, 452.0503845214844, 447.3560791015625
37.0, 37.06560134887695, 692.8480224609375, 694.2523193359375, 686.4780883789062
37.25, 37.31520080566406, 492.2216796875, 493.2176818847656, 488.03656005859375
37.5, 37.56560134887695, 320.4722595214844, 321.2978210449219, 318.2857666015625
37.75, 37.82360076904297, 463.617431640625, 464.664306640625, 459.8008117675781
38.0, 38.06660079956055, 597.39404296875, 598.3668212890625, 591.7957763671875
38.25, 38.31399917602539, 484.4156799316406, 485.3844299316406, 480.2940673828125
38.5, 38.566200256347656, 374.45965576171875, 375.5726318359375, 371.8416748046875
38.75, 38.814998626708984, 467.4726867675781, 468.55206298828125, 463.62969970703125
39.0, 39.066200256347656, 553.5833740234375, 554.5589599609375, 548.4137573242188
39.25, 39.316001892089844, 479.2977294921875, 480.2800598144531, 475.2330322265625
39.5, 39.566200256347656, 410.1338195800781, 411.261962890625, 407.1762390136719
39.75, 39.816200256347656, 482.6079406738281, 491.1365051269531, 500.59625244140625
40.0, 40.07440185546875, 516.8919067382812, 525.7440185546875, 520.0109252929688
40.25, 40.323001861572266, 206.6024169921875, 196.24122619628906, 183.76995849609375
40.5, 40.57400131225586, 440.55810546875, 441.6717224121094, 437.0815734863281
40.75, 40.81399917602539, 808.4722900390625, 807.829345703125, 797.9994506835938
41.0, 41.065799713134766, 505.7729797363281, 506.6863098144531, 501.3027648925781
41.25, 41.31560134887695, 233.59332275390625, 235.15573120117188, 233.24661254882812
41.5, 41.56420135498047, 449.6616516113281, 450.8174133300781, 446.1119384765625
41.75, 41.81420135498047, 672.744384765625, 673.7484130859375, 666.1400146484375
42.0, 42.071998596191406, 489.98406982421875, 490.9679260253906, 485.7919006347656
42.25, 42.31439971923828, 313.306640625, 314.12396240234375, 311.18743896484375
42.5, 42.56560134887695, 460.1341552734375, 461.2092590332031, 456.3627014160156
42.75, 42.81480026245117, 612.7216186523438, 613.912353515625, 607.388427734375
43.0, 43.07440185546875, 483.7830810546875, 484.7894592285156, 479.7247314453125
43.25, 43.314998626708984, 361.4497375488281, 362.392822265625, 358.614990234375
43.5, 43.56520080566406, 467.86212158203125, 468.9451599121094, 463.97979736328125
43.75, 43.81420135498047, 564.179931640625, 565.3223266601562, 559.3278198242188
44.0, 44.06439971923828, 478.9111022949219, 479.9230041503906, 474.90350341796875
44.25, 44.31560134887695, 406.8074951171875, 407.82440185546875, 403.5353088378906
44.5, 44.56520080566406, 853.7841186523438, 860.6966552734375, 850.766357421875
44.75, 44.8202018737793, 518.8497314453125, 519.9248046875, 514.4400024414062
45.0, 45.07099914550781, 350.35394287109375, 345.5953674316406, 342.7733154296875
45.25, 45.31560134887695, 431.96014404296875, 432.98858642578125, 428.43817138671875
45.5, 45.572601318359375, 831.9970703125, 833.2942504882812, 824.18505859375
45.75, 45.82279968261719, 502.0527648925781, 503.08740234375, 497.8075256347656
46.0, 46.06700134277344, 224.49461364746094, 224.9769287109375, 222.94998168945312
46.25, 46.322200775146484, 452.8258361816406, 453.8877258300781, 449.1441955566406
46.5, 46.57460021972656, 653.3258056640625, 654.581298828125, 647.2063598632812
46.75, 46.8213996887207, 490.8230285644531, 491.84234619140625, 486.650146484375
47.0, 47.065799713134766, 305.6959533691406, 306.52734375, 303.75372314453125
47.25, 47.32400131225586, 462.0775146484375, 463.144775390625, 458.2797546386719
47.5, 47.56719970703125, 609.759765625, 611.2091674804688, 604.1686401367188
47.75, 47.81660079956055, 483.47198486328125, 484.5160217285156, 479.3944091796875
48.0, 48.06700134277344, 364.38726806640625, 365.1169128417969, 361.744140625
48.25, 48.316001892089844, 468.1622009277344, 469.2172546386719, 464.2932434082031
48.5, 48.565399169921875, 568.0089111328125, 569.32080078125, 563.1058349609375
48.75, 48.816001892089844, 479.3611755371094, 480.39202880859375, 475.3528137207031
49.0, 49.06639862060547, 409.2887878417969, 410.17431640625, 405.97271728515625
49.25, 49.31520080566406, 471.56219482421875, 472.6247863769531, 467.6310729980469
49.5, 49.566001892089844, 529.4013671875, 530.5862426757812, 524.8926391601562
49.75, 49.81560134887695, 503.88555908203125, 505.48919677734375, 499.35931396484375
50.0, 50.07080078125, 429.3277587890625, 430.2669677734375, 425.95318603515625
50.25, 50.31740188598633, 887.7520141601562, 889.7994995117188, 876.9609375
50.5, 50.56679916381836, 511.8335876464844, 512.9569091796875, 507.3405456542969
50.75, 50.814998626708984, 182.70513916015625, 182.62161254882812, 183.35598754882812
51.0, 51.07160186767578, 444.1587829589844, 445.1434326171875, 440.49517822265625
51.25, 51.316200256347656, 791.0735473632812, 793.1258544921875, 782.7930297851562
51.5, 51.58420181274414, 495.4154052734375, 496.527099609375, 491.17108154296875
51.75, 51.81439971923828, 239.990966796875, 239.94859313964844, 238.23338317871094
52.0, 52.07460021972656, 458.37457275390625, 459.368408203125, 454.5713195800781
52.25, 52.31660079956055, 639.9755249023438, 641.8047485351562, 634.3916625976562
52.5, 52.56760025024414, 489.2241516113281, 490.31646728515625, 485.1077880859375
52.75, 52.816200256347656, 340.2224426269531, 340.63018798828125, 337.55035400390625
53.0, 53.065399169921875, 463.4462585449219, 464.4560852050781, 459.5998229980469
53.25, 53.32360076904297, 580.9348754882812, 582.4876098632812, 575.91943359375
53.5, 53.57279968261719, 480.5965270996094, 481.6506652832031, 476.5672912597656
53.75, 53.8213996887207, 387.7707214355469, 388.2667236328125, 384.65130615234375
54.0, 54.07120132446289, 470.6410827636719, 471.6649475097656, 466.7249755859375
54.25, 54.31480026245117, 542.6240234375, 544.1084594726562, 537.967529296875
54.5, 54.571800231933594, 474.6556701660156, 472.09320068359375, 471.8341369628906
54.75, 54.819000244140625, 419.15765380859375, 419.86895751953125, 415.7430114746094
55.0, 55.065799713134766, 922.3226318359375, 870.6915893554688, 917.8558349609375
55.25, 55.31399917602539, 517.4375, 518.7742919921875, 513.042236328125
55.5, 55.565399169921875, 204.4292449951172, 202.63465881347656, 203.57618713378906
55.75, 55.816200256347656, 439.990966796875, 440.8288879394531, 436.3772888183594
56.0, 56.065399169921875, 740.7865600585938, 744.1066284179688, 733.2672119140625
56.25, 56.32419967651367, 496.5234069824219, 497.71002197265625, 492.29150390625
56.5, 56.565399169921875, 261.44403076171875, 261.1408386230469, 260.1882629394531
56.75, 56.81700134277344, 453.6294860839844, 454.56121826171875, 449.9725646972656
57.0, 57.06779861450195, 647.5789184570312, 649.8193359375, 641.2511596679688
57.25, 57.31660079956055, 490.16925048828125, 491.3126525878906, 485.96856689453125
57.5, 57.56660079956055, 334.0035095214844, 334.3757629394531, 331.6496887207031
57.75, 57.82320022583008, 465.1075134277344, 466.1302795410156, 461.3022766113281
58.0, 58.07320022583008, 586.3515625, 588.1846923828125, 580.8219604492188
58.25, 58.321998596191406, 481.1891784667969, 482.2658996582031, 477.1083068847656
58.5, 58.565799713134766, 388.12457275390625, 386.7423095703125, 390.4620361328125
58.75, 58.81740188598633, 820.0130615234375, 821.5679321289062, 821.6907958984375
59.0, 59.075599670410156, 508.178955078125, 510.3960266113281, 507.9505310058594
59.25, 59.31420135498047, 242.74148559570312, 242.7812042236328, 243.82470703125
59.5, 59.565799713134766, 453.8074035644531, 454.72686767578125, 452.74835205078125
59.75, 59.814998626708984, 626.1259765625, 628.8532104492188, 622.4439697265625
60.0, 60.07160186767578, 486.5546569824219, 487.9960021972656, 483.5724182128906
