Time, Timer, measurement1.Three-phase Meter1.VLn_RMS, measurement2.Three-phase Meter2.VLn_RMS, measurement3.Three-phase Meter3.VLn_RMS
0.25, 0.3001999855041504, 470.3140869140625, 466.7281494140625, 466.30029296875
0.5, 0.5479999780654907, 470.5991516113281, 467.00433349609375, 466.5736389160156
0.75, 0.7978000044822693, 470.63507080078125, 467.0379333496094, 466.6071472167969
1.0, 1.0546000003814697, 467.8409423828125, 464.270263671875, 463.83721923828125
1.25, 1.3042000532150269, 468.8497619628906, 465.26959228515625, 464.83575439453125
1.5, 1.5535999536514282, 468.62799072265625, 465.0380859375, 464.6073913574219
1.75, 1.7979999780654907, 469.6701965332031, 466.1158142089844, 465.6605529785156
2.0, 2.0473999977111816, 469.1804504394531, 465.73126220703125, 465.2210998535156
2.25, 2.304800033569336, 469.1259765625, 465.6305236816406, 465.1303405761719
2.5, 2.5555999279022217, 469.1973876953125, 465.7729797363281, 465.2389831542969
2.75, 2.796799898147583, 469.2264404296875, 465.8734436035156, 465.3156433105469
3.0, 3.0510001182556152, 469.1012878417969, 465.7045593261719, 465.1600036621094
3.25, 3.2981998920440674, 469.96820068359375, 466.59613037109375, 466.0511474609375
3.5, 3.5562000274658203, 469.17523193359375, 465.7997131347656, 465.256103515625
3.75, 3.8032000064849854, 468.5472717285156, 465.1065368652344, 464.59881591796875
4.0, 4.053199768066406, 469.3141784667969, 465.8409423828125, 465.32684326171875
4.25, 4.303800106048584, 469.3221130371094, 465.9076843261719, 465.3688049316406
4.5, 4.554800033569336, 469.2785339355469, 465.9071350097656, 465.3520202636719
4.75, 4.797599792480469, 469.07781982421875, 465.6694641113281, 465.1309509277344
5.0, 5.050600051879883, 468.97344970703125, 465.4764404296875, 464.97576904296875
5.25, 5.303599834442139, 469.2287902832031, 465.796875, 465.2660217285156
5.5, 5.548799991607666, 469.9841003417969, 466.6164245605469, 466.0625
5.75, 5.796599864959717, 469.2238464355469, 465.8450927734375, 465.2964782714844
6.0, 6.053800106048584, 469.9951477050781, 466.60504150390625, 466.06121826171875
6.25, 6.304999828338623, 469.3715515136719, 465.9927978515625, 465.4474182128906
6.5, 6.555200099945068, 469.3052673339844, 465.8970947265625, 465.3630676269531
6.75, 6.80019998550415, 469.1722106933594, 465.6837158203125, 465.1845703125
7.0, 7.05620002746582, 469.2854919433594, 465.8839416503906, 465.3480224609375
7.25, 7.303800106048584, 469.3218688964844, 465.9660339355469, 465.41046142578125
7.5, 7.548600196838379, 469.2171630859375, 465.8270263671875, 465.2857360839844
7.75, 7.807000160217285, 468.5014343261719, 465.0165100097656, 464.5176086425781
8.0, 8.063400268554688, 469.34613037109375, 465.8987121582031, 465.37176513671875
8.25, 8.31719970703125, 470.4058837890625, 467.0216369628906, 466.4671936035156
8.5, 8.563799858093262, 469.2697448730469, 465.8951110839844, 465.34393310546875
8.75, 8.826199531555176, 471.0314636230469, 467.5787658691406, 467.0357360839844
9.0, 9.07960033416748, 469.16900634765625, 465.7055969238281, 465.1925964355469
9.25, 9.318599700927734, 469.3131103515625, 465.8864440917969, 465.3471984863281
9.5, 9.564800262451172, 469.26800537109375, 465.91046142578125, 465.3511657714844
9.75, 9.824600219726562, 469.1371154785156, 465.73712158203125, 465.1946716308594
10.0, 10.065600395202637, 469.457763671875, 466.0867614746094, 465.5350341796875
10.25, 10.326600074768066, 469.26605224609375, 465.8743591308594, 465.3332824707031
10.5, 10.566800117492676, 467.3160705566406, 463.84954833984375, 463.343505859375
10.75, 10.824999809265137, 469.4050598144531, 465.9529113769531, 465.4341735839844
11.0, 11.068400382995605, 467.4769592285156, 464.089599609375, 463.54840087890625
11.25, 11.32960033416748, 469.3617248535156, 465.9762878417969, 465.4236145019531
11.5, 11.583000183105469, 469.17010498046875, 465.7513122558594, 465.214599609375
11.75, 11.829000473022461, 469.177978515625, 465.69476318359375, 465.19219970703125
12.0, 12.078800201416016, 469.2886047363281, 465.8724060058594, 465.3380432128906
12.25, 12.333600044250488, 469.2232360839844, 465.8731384277344, 465.3157653808594
12.5, 12.580599784851074, 469.1990661621094, 465.8135681152344, 465.26788330078125
12.75, 12.833600044250488, 469.9878845214844, 466.61956787109375, 466.06976318359375
13.0, 13.084600448608398, 469.29052734375, 465.90386962890625, 465.3612365722656
13.25, 13.335200309753418, 468.33599853515625, 464.8890686035156, 464.3686218261719
13.5, 13.587400436401367, 469.27734375, 465.8001708984375, 465.290771484375
13.75, 13.835000038146973, 469.314208984375, 465.9045715332031, 465.3663330078125
14.0, 14.085599899291992, 471.3217468261719, 467.9763488769531, 467.4169006347656
14.25, 14.330599784851074, 470.79571533203125, 467.4119567871094, 466.86865234375
14.5, 14.585800170898438, 468.8399963378906, 465.2556457519531, 464.8045654296875
14.75, 14.829000473022461, 469.4355773925781, 465.9737548828125, 465.4549255371094
15.0, 15.087599754333496, 469.9549865722656, 466.59368896484375, 466.03741455078125
15.25, 15.333800315856934, 469.2741394042969, 465.8846740722656, 465.33648681640625
15.5, 15.584400177001953, 468.4771728515625, 465.0360107421875, 464.5106506347656
15.75, 15.836999893188477, 469.4407653808594, 465.9805908203125, 465.4626770019531
16.0, 16.088600158691406, 469.42938232421875, 466.0101013183594, 465.468994140625
16.25, 16.331600189208984, 469.3537902832031, 465.9841613769531, 465.4276428222656
16.5, 16.587600708007812, 469.19183349609375, 465.7862243652344, 465.24554443359375
16.75, 16.829200744628906, 469.44464111328125, 466.0856018066406, 465.5330505371094
17.0, 17.08340072631836, 469.37701416015625, 465.9717712402344, 465.431884765625
17.25, 17.334199905395508, 467.9185485839844, 464.4276123046875, 463.9307861328125
17.5, 17.579999923706055, 425.372802734375, 404.3631896972656, 421.7543029785156
17.75, 17.827999114990234, 207.23385620117188, 150.03672790527344, 205.197509765625
18.0, 18.084999084472656, 299.99676513671875, 112.06475830078125, 296.9791259765625
18.25, 18.336599349975586, 168.04864501953125, 101.00163269042969, 166.36358642578125
18.5, 18.58099937438965, 605.9644165039062, 652.9469604492188, 601.2786865234375
18.75, 18.83139991760254, 652.8128051757812, 619.7268676757812, 647.2951049804688
19.0, 19.079599380493164, 356.7796325683594, 251.34840393066406, 353.3027038574219
19.25, 19.329200744628906, 202.0496826171875, 161.2091522216797, 201.2483673095703
19.5, 19.58919906616211, 474.8127746582031, 624.1961059570312, 471.8399963378906
19.75, 19.82900047302246, 706.0383911132812, 753.2592163085938, 700.4030151367188
20.0, 20.077999114990234, 491.3779602050781, 392.8793640136719, 487.1759338378906
20.25, 20.334400177001953, 68.00667572021484, 154.9503936767578, 67.16553497314453
20.5, 20.584800720214844, 424.0367431640625, 607.4420776367188, 420.94952392578125
20.75, 20.827999114990234, 265.31671142578125, 400.0309753417969, 263.5993347167969
21.0, 21.084400177001953, 488.8566589355469, 503.7994689941406, 485.0377502441406
21.25, 21.336200714111328, 688.924072265625, 678.8285522460938, 683.357421875
21.5, 21.582000732421875, 364.3913269042969, 245.23907470703125, 361.17828369140625
21.75, 21.83639907836914, 366.3125305175781, 274.2445983886719, 363.18341064453125
22.0, 22.079599380493164, 307.00872802734375, 142.47743225097656, 303.95654296875
22.25, 22.32900047302246, 389.29998779296875, 631.7774658203125, 386.3209533691406
22.5, 22.57859992980957, 701.1610717773438, 724.642578125, 695.5433349609375
22.75, 22.831199645996094, 462.8510437011719, 361.4164733886719, 458.9140930175781
23.0, 23.087799072265625, 77.63999938964844, 145.93765258789062, 76.76195526123047
23.25, 23.329999923706055, 361.46722412109375, 537.8553466796875, 358.05596923828125
23.5, 23.580400466918945, 198.4975128173828, 368.62738037109375, 197.35342407226562
23.75, 23.832599639892578, 365.8390197753906, 435.8058166503906, 363.1019287109375
24.0, 24.08300018310547, 714.3418579101562, 745.7938842773438, 708.6532592773438
24.25, 24.333999633789062, 504.22576904296875, 411.1914367675781, 500.02081298828125
24.5, 24.585399627685547, 154.85133361816406, 67.8680648803711, 153.12742614746094
24.75, 24.838199615478516, 176.4505157470703, 138.9530792236328, 174.92425537109375
25.0, 25.07939910888672, 279.4857482910156, 441.91717529296875, 277.41986083984375
25.25, 25.33799934387207, 702.4763793945312, 719.5147705078125, 696.753662109375
25.5, 25.586999893188477, 377.5000305175781, 255.49363708496094, 374.71087646484375
25.75, 25.831600189208984, 217.62440490722656, 284.2155456542969, 214.85401916503906
26.0, 26.078800201416016, 390.28082275390625, 590.671142578125, 387.2862243652344
26.25, 26.329599380493164, 788.7252197265625, 826.4212646484375, 782.52490234375
26.5, 26.57939910888672, 519.468505859375, 424.19024658203125, 515.6212768554688
26.75, 26.827800750732422, 182.522705078125, 302.809814453125, 181.29562377929688
27.0, 27.09040069580078, 570.7365112304688, 651.7944946289062, 566.0773315429688
27.25, 27.33679962158203, 667.9752197265625, 674.85498046875, 662.6820678710938
27.5, 27.578399658203125, 505.2787780761719, 432.8285827636719, 501.0307312011719
27.75, 27.8302001953125, 355.9161682128906, 270.912841796875, 352.64923095703125
28.0, 28.07979965209961, 291.5650939941406, 373.5227355957031, 290.1660461425781
28.25, 28.334999084472656, 608.1781616210938, 682.353271484375, 603.2320556640625
28.5, 28.586999893188477, 575.2941284179688, 554.4940185546875, 570.5850830078125
28.75, 28.83639907836914, 482.1831970214844, 388.1404724121094, 478.20440673828125
29.0, 29.07939910888672, 53.08168029785156, 131.0115509033203, 52.93798065185547
29.25, 29.334999084472656, 566.9851684570312, 691.8721923828125, 562.677490234375
29.5, 29.586999893188477, 732.505859375, 709.2757568359375, 726.6295166015625
29.75, 29.836200714111328, 437.0937194824219, 350.4367980957031, 433.26104736328125
30.0, 30.07979965209961, 107.18121337890625, 112.73897552490234, 105.79279327392578
30.25, 30.333999633789062, 248.5896453857422, 59.29056930541992, 246.14463806152344
30.5, 30.584400177001953, 178.69528198242188, 91.46168518066406, 176.901123046875
30.75, 30.834999084472656, 565.3250122070312, 650.451171875, 561.0299682617188
31.0, 31.086999893188477, 671.8194580078125, 675.4939575195312, 666.4961547851562
31.25, 31.33679962158203, 463.7108154296875, 367.3711242675781, 459.74468994140625
31.5, 31.582399368286133, 270.390869140625, 180.39971923828125, 267.694091796875
31.75, 31.82939910888672, 314.284423828125, 185.77365112304688, 311.7053527832031
32.0, 32.0796012878418, 585.7090454101562, 686.142578125, 581.2969360351562
32.25, 32.3302001953125, 700.28076171875, 694.7445068359375, 694.701904296875
32.5, 32.58420181274414, 391.8523254394531, 285.0065002441406, 388.3924255371094
32.75, 32.83660125732422, 92.42903900146484, 142.04783630371094, 91.19644927978516
33.0, 33.087799072265625, 586.0870971679688, 756.3374633789062, 581.6255493164062
33.25, 33.33140182495117, 754.969482421875, 764.8804931640625, 748.8829345703125
33.5, 33.58760070800781, 312.00457763671875, 196.95928955078125, 309.1886901855469
33.75, 33.8286018371582, 171.7223358154297, 354.0216064453125, 170.82591247558594
34.0, 34.08259963989258, 494.9377746582031, 546.1365966796875, 491.1976013183594
34.25, 34.32820129394531, 500.1554870605469, 529.9769287109375, 496.2485046386719
34.5, 34.57939910888672, 558.8987426757812, 531.845458984375, 554.3756103515625
34.75, 34.827999114990234, 360.500244140625, 257.1090087890625, 357.3777770996094
35.0, 35.085201263427734, 251.3409881591797, 466.8052673339844, 249.58560180664062
35.25, 35.33660125732422, 368.4704284667969, 493.8822937011719, 365.8514404296875
35.5, 35.58660125732422, 570.3277587890625, 598.2981567382812, 565.8265991210938
35.75, 35.82939910888672, 642.7402954101562, 606.1796264648438, 637.41552734375
36.0, 36.08039855957031, 145.41787719726562, 263.5638732910156, 144.52064514160156
36.25, 36.33639907836914, 626.2816162109375, 685.6325073242188, 621.518798828125
36.5, 36.5786018371582, 632.258056640625, 649.5935668945312, 627.2257080078125
36.75, 36.828800201416016, 503.2716369628906, 424.24810791015625, 499.0128173828125
37.0, 37.078800201416016, 387.63128662109375, 290.3181457519531, 384.0133056640625
37.25, 37.32780075073242, 247.4566192626953, 215.53724670410156, 244.8990478515625
37.5, 37.582000732421875, 227.6163330078125, 238.29579162597656, 225.89981079101562
37.75, 37.83700180053711, 509.7810974121094, 592.7539672851562, 505.98443603515625
38.0, 38.07939910888672, 536.40380859375, 520.438232421875, 532.21533203125
38.25, 38.33319854736328, 544.6814575195312, 485.1400451660156, 540.171875
38.5, 38.58420181274414, 324.31048583984375, 267.2301025390625, 321.40692138671875
38.75, 38.82939910888672, 211.4025115966797, 376.0559387207031, 210.03273010253906
39.0, 39.0786018371582, 654.6185913085938, 716.4159545898438, 649.506103515625
39.25, 39.334999084472656, 604.4449462890625, 598.0933837890625, 599.5608520507812
39.5, 39.587398529052734, 490.3573303222656, 403.0191650390625, 486.1341247558594
39.75, 39.83539962768555, 76.32337951660156, 237.1223907470703, 75.9356918334961
40.0, 40.081600189208984, 659.453369140625, 761.8118896484375, 654.29638671875
40.25, 40.33660125732422, 619.9642333984375, 592.792236328125, 614.9119262695312
40.5, 40.5796012878418, 453.1929626464844, 352.6556701660156, 449.0301818847656
40.75, 40.8296012878418, 366.5982360839844, 340.4657287597656, 363.2578430175781
41.0, 41.08440017700195, 233.788818359375, 91.32647705078125, 231.5111541748047
41.25, 41.331600189208984, 164.74501037597656, 107.75138854980469, 163.20513916015625
41.5, 41.58599853515625, 672.4391479492188, 722.1533203125, 667.143798828125
41.75, 41.829200744628906, 621.69921875, 594.7117919921875, 616.570556640625
42.0, 42.078800201416016, 191.70278930664062, 55.863059997558594, 189.7137908935547
42.25, 42.3380012512207, 247.65187072753906, 188.34873962402344, 245.6521759033203
42.5, 42.57979965209961, 769.3168334960938, 838.47216796875, 763.2247314453125
42.75, 42.831199645996094, 603.8611450195312, 528.90966796875, 598.9210815429688
43.0, 43.08639907836914, 165.0824737548828, 250.4705810546875, 164.04092407226562
43.25, 43.32899856567383, 478.5857849121094, 591.0867309570312, 475.09051513671875
43.5, 43.58420181274414, 661.9094848632812, 689.1549682617188, 656.757568359375
43.75, 43.83380126953125, 541.5537109375, 477.547607421875, 537.0836791992188
44.0, 44.079200744628906, 449.10528564453125, 358.8670349121094, 445.1515197753906
44.25, 44.32780075073242, 31.689838409423828, 188.7372283935547, 31.658418655395508
44.5, 44.58580017089844, 526.6886596679688, 655.984130859375, 522.7279663085938
44.75, 44.83140182495117, 560.295166015625, 570.0895385742188, 555.8544311523438
45.0, 45.08940124511719, 552.5646362304688, 500.1135559082031, 547.92724609375
45.25, 45.33580017089844, 223.36929321289062, 134.89231872558594, 221.24172973632812
45.5, 45.57939910888672, 411.17266845703125, 630.2984619140625, 408.091552734375
45.75, 45.83219909667969, 761.2599487304688, 798.1967163085938, 755.16796875
46.0, 46.08720016479492, 510.871826171875, 449.3141174316406, 506.55743408203125
46.25, 46.33620071411133, 169.29519653320312, 76.87555694580078, 167.48794555664062
46.5, 46.5796012878418, 578.6333618164062, 716.0663452148438, 574.1951293945312
46.75, 46.829200744628906, 751.743408203125, 762.1489868164062, 745.6465454101562
47.0, 47.082000732421875, 166.67965698242188, 48.47231674194336, 165.06777954101562
47.25, 47.33100128173828, 435.7996826171875, 606.3837890625, 432.61480712890625
47.5, 47.579200744628906, 575.8862915039062, 605.1054077148438, 571.3919677734375
47.75, 47.83319854736328, 576.7341918945312, 535.7329711914062, 571.9864501953125
48.0, 48.09260177612305, 423.6739196777344, 287.88848876953125, 419.9416809082031
48.25, 48.328800201416016, 228.76695251464844, 399.09088134765625, 227.3751220703125
48.5, 48.57820129394531, 695.844970703125, 762.14990234375, 690.370849609375
48.75, 48.83720016479492, 596.1997680664062, 564.9070434570312, 591.2914428710938
49.0, 49.081600189208984, 348.8214111328125, 219.58084106445312, 345.6311950683594
49.25, 49.3296012878418, 341.3008117675781, 519.228515625, 338.8232727050781
49.5, 49.58060073852539, 757.2900390625, 808.438720703125, 751.2554321289062
49.75, 49.82780075073242, 475.4025573730469, 398.31640625, 471.3441467285156
50.0, 50.08420181274414, 88.58444213867188, 218.8495330810547, 88.03758239746094
50.25, 50.32979965209961, 390.9891052246094, 543.6555786132812, 388.3244934082031
50.5, 50.578399658203125, 345.4228515625, 447.0204162597656, 342.9785461425781
50.75, 50.83140182495117, 481.0818786621094, 492.8013000488281, 477.34613037109375
51.0, 51.08679962158203, 621.7203369140625, 583.9874877929688, 616.6051635742188
51.25, 51.334999084472656, 113.45407104492188, 51.52811050415039, 112.30755615234375
51.5, 51.5880012512207, 283.435302734375, 472.58123779296875, 281.57000732421875
51.75, 51.83359909057617, 420.5606689453125, 517.0095825195312, 417.4875183105469
52.0, 52.08300018310547, 773.4775390625, 836.0147094726562, 767.2759399414062
52.25, 52.33620071411133, 308.2969665527344, 208.29644775390625, 305.6622009277344
52.5, 52.58539962768555, 386.5606689453125, 565.7604370117188, 383.81671142578125
52.75, 52.82899856567383, 623.36962890625, 691.98291015625, 618.527099609375
53.0, 53.07939910888672, 623.2669067382812, 605.277587890625, 618.197021484375
53.25, 53.33660125732422, 114.6375961303711, 79.4175796508789, 113.6321029663086
53.5, 53.581199645996094, 686.0341186523438, 850.705810546875, 680.646240234375
53.75, 53.828800201416016, 655.439453125, 649.2237548828125, 650.1204833984375
54.0, 54.0796012878418, 198.46580505371094, 77.08806610107422, 196.5746307373047
54.25, 54.327598571777344, 233.6537322998047, 429.0116882324219, 232.1975555419922
54.5, 54.5807991027832, 347.6948547363281, 467.530517578125, 345.25567626953125
54.75, 54.83660125732422, 595.4808349609375, 660.430908203125, 590.7852172851562
55.0, 55.0796012878418, 515.9939575195312, 445.4033508300781, 511.6807556152344
55.25, 55.32899856567383, 222.7804718017578, 380.5538330078125, 221.4715576171875
55.5, 55.57820129394531, 448.2840576171875, 567.4315795898438, 444.97515869140625
55.75, 55.828800201416016, 627.102783203125, 655.6068725585938, 622.130126953125
56.0, 56.08340072631836, 470.1853942871094, 388.48828125, 466.2741394042969
56.25, 56.33660125732422, 334.2946472167969, 507.7556457519531, 331.8848571777344
56.5, 56.584598541259766, 622.1198120117188, 663.930908203125, 617.2745361328125
56.75, 56.82899856567383, 535.84619140625, 477.19464111328125, 531.3780517578125
57.0, 57.07820129394531, 198.57225036621094, 67.24080657958984, 196.44070434570312
57.25, 57.33359909057617, 378.2588195800781, 195.70973205566406, 374.8584289550781
57.5, 57.58679962158203, 102.12667083740234, 363.7668151855469, 101.53382873535156
57.75, 57.83539962768555, 621.1060791015625, 664.0272827148438, 616.12158203125
58.0, 58.081600189208984, 620.2194213867188, 573.481201171875, 615.406982421875
58.25, 58.32820129394531, 267.0631103515625, 141.4286346435547, 264.75323486328125
58.5, 58.590999603271484, 394.2647399902344, 282.4447021484375, 391.2785339355469
58.75, 58.8307991027832, 670.8543090820312, 810.72607421875, 665.63720703125
59.0, 59.08359909057617, 715.2886962890625, 681.2472534179688, 709.50341796875
59.25, 59.33420181274414, 459.24609375, 408.0300598144531, 454.85516357421875
59.5, 59.58679962158203, 435.59405517578125, 355.8619689941406, 432.17388916015625
59.75, 59.83399963378906, 97.50346374511719, 127.3514633178711, 96.822509765625
60.0, 60.08679962158203, 635.8362426757812, 739.614501953125, 630.2633056640625
60.25, 60.32899856567383, 713.9921264648438, 691.6231079101562, 708.7967529296875
