Time, Timer, measurement1.Three-phase Meter1.VLn_RMS, measurement2.Three-phase Meter2.VLn_RMS, measurement3.Three-phase Meter3.VLn_RMS
0.25, 0.3070000112056732, 438.2940673828125, 434.9351806640625, 434.543701171875
0.5, 0.550599992275238, 644.0643920898438, 639.1724243164062, 638.6065063476562
0.75, 0.798799991607666, 492.4854431152344, 488.7225036621094, 488.2857971191406
1.0, 1.0504000186920166, 227.35348510742188, 225.61595153808594, 225.42465209960938
1.25, 1.3106000423431396, 449.44525146484375, 446.0146484375, 445.6135559082031
1.5, 1.5604000091552734, 613.2929077148438, 608.6339721679688, 608.0934448242188
1.75, 1.8118000030517578, 485.6726379394531, 482.0229797363281, 481.5439147949219
2.0, 2.062000036239624, 294.8126525878906, 292.2813415527344, 291.9657897949219
2.25, 2.3127999305725098, 454.6913146972656, 451.31494140625, 450.8205871582031
2.5, 2.5615999698638916, 572.3582153320312, 568.3981323242188, 567.759521484375
2.75, 2.810800075531006, 482.23516845703125, 478.7741394042969, 478.227294921875
3.0, 3.0622000694274902, 344.8417663574219, 342.10235595703125, 341.7113952636719
3.25, 3.312000036239624, 460.9407958984375, 457.5400085449219, 457.0342102050781
3.5, 3.5606000423431396, 548.3316040039062, 544.5020141601562, 543.8882446289062
3.75, 3.809999942779541, 478.735107421875, 475.2973327636719, 474.75054931640625
4.0, 4.059999942779541, 381.77392578125, 378.8224182128906, 378.39300537109375
4.25, 4.3094000816345215, 469.1190490722656, 463.7586669921875, 463.17999267578125
4.5, 4.566800117492676, 525.6926879882812, 521.99365234375, 521.4041137695312
4.75, 4.816400051116943, 451.8481140136719, 448.6556701660156, 448.2527770996094
5.0, 5.067800045013428, 413.0206298828125, 410.00726318359375, 409.5456848144531
5.25, 5.31879997253418, 769.80029296875, 764.134033203125, 763.322265625
5.5, 5.560200214385986, 506.6417541503906, 502.9755859375, 502.4055480957031
5.75, 5.8094000816345215, 157.63330078125, 156.92092895507812, 156.6612091064453
6.0, 6.060200214385986, 436.8999328613281, 433.7070007324219, 433.2229919433594
6.25, 6.3105998039245605, 665.8607177734375, 661.029541015625, 660.30810546875
6.5, 6.561999797821045, 493.45599365234375, 489.8942565917969, 489.3337707519531
6.75, 6.811800003051758, 273.59820556640625, 271.5767822265625, 271.26800537109375
7.0, 7.060400009155273, 450.177978515625, 446.8863525390625, 446.3922424316406
7.25, 7.309999942779541, 601.0709228515625, 596.71533203125, 596.0528564453125
7.5, 7.56220006942749, 484.66278076171875, 481.16217041015625, 480.61029052734375
7.75, 7.811200141906738, 347.8357238769531, 345.0601806640625, 344.6686096191406
8.0, 8.062199592590332, 460.2469482421875, 456.8690185546875, 456.3620910644531
8.25, 8.31879997253418, 550.7426147460938, 546.905029296875, 546.28955078125
8.5, 8.561400413513184, 475.4200744628906, 472.0008239746094, 471.461181640625
8.75, 8.81980037689209, 415.7645568847656, 412.7361755371094, 412.2685852050781
9.0, 9.059599876403809, 801.7572631835938, 795.7277221679688, 794.9931030273438
9.25, 9.311200141906738, 512.4851684570312, 508.7637634277344, 508.19537353515625
9.5, 9.560799598693848, 158.66603088378906, 157.7324676513672, 157.50230407714844
9.75, 9.8193998336792, 438.6564025878906, 435.4597473144531, 434.9725646972656
10.0, 10.070599555969238, 700.088134765625, 695.00634765625, 694.2449951171875
10.25, 10.311200141906738, 497.27154541015625, 493.683837890625, 493.11773681640625
10.5, 10.560799598693848, 268.5586242675781, 266.5645446777344, 266.25762939453125
10.75, 10.811800003051758, 448.8699035644531, 445.591552734375, 445.0982971191406
11.0, 11.062000274658203, 612.9820556640625, 608.5488891601562, 607.8784790039062
11.25, 11.312399864196777, 482.5522155761719, 479.0680847167969, 478.5207824707031
11.5, 11.562800407409668, 353.6656799316406, 351.06085205078125, 350.66607666015625
11.75, 11.810999870300293, 462.8410339355469, 459.4759216308594, 458.96087646484375
12.0, 12.0600004196167, 551.9671020507812, 547.979736328125, 547.3621826171875
12.25, 12.319000244140625, 476.1461181640625, 472.69818115234375, 472.157470703125
12.5, 12.561400413513184, 399.46234130859375, 396.55218505859375, 396.0998840332031
12.75, 12.810799598693848, 856.4986572265625, 850.520751953125, 849.7481079101562
13.0, 13.062199592590332, 519.6189575195312, 515.8819580078125, 515.2882080078125
13.25, 13.310400009155273, 164.71095275878906, 163.50746154785156, 163.26730346679688
13.5, 13.569600105285645, 439.9754638671875, 436.772216796875, 436.2835388183594
13.75, 13.81779956817627, 689.4651489257812, 684.4578857421875, 683.7185668945312
14.0, 14.060799598693848, 495.5682678222656, 491.9993591308594, 491.4345397949219
14.25, 14.310799598693848, 278.9852600097656, 276.9181823730469, 276.60589599609375
14.5, 14.561200141906738, 453.7566833496094, 450.462646484375, 449.9581298828125
14.75, 14.810999870300293, 605.8621826171875, 601.4772338867188, 600.812255859375
15.0, 15.062800407409668, 482.1054382324219, 478.62164306640625, 478.07586669921875
15.25, 15.316399574279785, 350.6900939941406, 348.1027526855469, 347.7143249511719
15.5, 15.561800003051758, 462.2718811035156, 458.9111633300781, 458.3973083496094
15.75, 15.810400009155273, 553.7267456054688, 549.72705078125, 549.105712890625
16.0, 16.060400009155273, 475.3590087890625, 471.92803955078125, 471.3877868652344
16.25, 16.31100082397461, 407.7457580566406, 404.7667236328125, 404.31304931640625
16.5, 16.562000274658203, 809.361083984375, 803.490478515625, 802.7020263671875
16.75, 16.816999435424805, 507.21270751953125, 503.54949951171875, 502.97662353515625
17.0, 17.066200256347656, 183.1641082763672, 181.67713928222656, 181.47666931152344
17.25, 17.316200256347656, 441.776611328125, 438.5575866699219, 438.0656433105469
17.5, 17.566999435424805, 678.068115234375, 673.1598510742188, 672.4349365234375
17.75, 17.812400817871094, 489.5180358886719, 485.9745788574219, 485.42138671875
18.0, 18.067800521850586, 311.0856018066406, 308.76708984375, 308.4241943359375
18.25, 18.318599700927734, 457.5518493652344, 454.2302551269531, 453.71771240234375
18.5, 18.56879997253418, 572.7304077148438, 568.6204223632812, 567.970458984375
18.75, 18.809200286865234, 480.0262451171875, 476.5566101074219, 476.0111083984375
19.0, 19.059799194335938, 372.42919921875, 369.53436279296875, 369.11474609375
19.25, 19.310199737548828, 464.5755310058594, 461.1662292480469, 460.6520690917969
19.5, 19.561199188232422, 538.4331665039062, 534.6712646484375, 534.0630493164062
19.75, 19.809999465942383, 426.6528015136719, 424.967529296875, 424.5821228027344
20.0, 20.06100082397461, 415.53857421875, 412.4019470214844, 411.9407653808594
20.25, 20.311199188232422, 791.1748046875, 785.8378295898438, 785.0570678710938
20.5, 20.560199737548828, 508.18804931640625, 504.5928039550781, 504.0191345214844
20.75, 20.81100082397461, 215.96218872070312, 213.85415649414062, 213.64459228515625
21.0, 21.06559944152832, 445.74603271484375, 442.4552307128906, 441.9537658691406
21.25, 21.320600509643555, 628.7717895507812, 624.2525024414062, 623.5477294921875
21.5, 21.56599998474121, 487.2792053222656, 483.7667236328125, 483.2130432128906
21.75, 21.81599998474121, 340.6680603027344, 338.1741638183594, 337.7880554199219
22.0, 22.060800552368164, 458.4293518066406, 455.0851745605469, 454.5775146484375
22.25, 22.316999435424805, 560.6468505859375, 556.5958862304688, 555.96484375
22.5, 22.567800521850586, 477.6584777832031, 474.20086669921875, 473.6584777832031
22.75, 22.817399978637695, 402.081787109375, 399.1365051269531, 398.68841552734375
23.0, 23.06879997253418, 825.0758056640625, 818.6768188476562, 817.6882934570312
23.25, 23.309600830078125, 525.5762329101562, 521.783447265625, 521.1903686523438
23.5, 23.56060028076172, 362.3037109375, 360.4128112792969, 360.0307922363281
23.75, 23.809999465942383, 422.8714904785156, 419.7952880859375, 419.318603515625
24.0, 24.062999725341797, 757.1514282226562, 751.7030639648438, 750.8970947265625
24.25, 24.308799743652344, 498.16259765625, 494.56829833984375, 494.0030822753906
24.5, 24.56100082397461, 244.64210510253906, 242.84457397460938, 242.55105590820312
24.75, 24.80940055847168, 449.2149658203125, 445.9407653808594, 445.44244384765625
25.0, 25.06279945373535, 643.1759643554688, 638.5249633789062, 637.817626953125
25.25, 25.31100082397461, 486.09832763671875, 482.5845642089844, 482.032470703125
25.5, 25.568599700927734, 347.7518005371094, 345.2015686035156, 344.8089294433594
25.75, 25.80900001525879, 459.3284606933594, 455.9763488769531, 455.46856689453125
26.0, 26.05940055847168, 563.5386352539062, 558.5266723632812, 559.0133056640625
26.25, 26.31920051574707, 472.1839294433594, 458.6166076660156, 469.4283447265625
26.5, 26.56100082397461, 429.6752624511719, 426.98431396484375, 426.1101379394531
26.75, 26.817800521850586, 814.776123046875, 813.6510009765625, 808.0048217773438
27.0, 27.059200286865234, 506.8095703125, 503.95751953125, 502.63299560546875
27.25, 27.310800552368164, 243.96475219726562, 243.44786071777344, 241.86688232421875
27.5, 27.56060028076172, 457.24786376953125, 454.0849609375, 453.45635986328125
27.75, 27.81060028076172, 638.3900756835938, 636.6620483398438, 633.1412963867188
28.0, 28.059999465942383, 487.7691345214844, 484.822265625, 483.7236633300781
28.25, 28.310800552368164, 362.9985046386719, 359.4491271972656, 359.9492492675781
28.5, 28.560400009155273, 469.4672546386719, 467.0901794433594, 465.5538330078125
28.75, 28.809600830078125, 545.5542602539062, 544.7549438476562, 541.0302124023438
29.0, 29.06100082397461, 260.4587097167969, 288.6868591308594, 258.4583740234375
29.25, 29.31100082397461, 434.0501708984375, 432.95428466796875, 430.417236328125
29.5, 29.561599731445312, 741.5203247070312, 745.854248046875, 735.352783203125
29.75, 29.811199188232422, 501.61932373046875, 497.54693603515625, 497.4377136230469
30.0, 30.059799194335938, 289.7458190917969, 287.9549560546875, 287.2876892089844
30.25, 30.310800552368164, 460.4830627441406, 460.8851623535156, 456.6221618652344
30.5, 30.565399169921875, 611.5888671875, 613.84814453125, 606.5198364257812
30.75, 30.81559944152832, 483.5921936035156, 484.48822021484375, 479.5591735839844
31.0, 31.061199188232422, 378.57763671875, 378.30316162109375, 375.3816833496094
31.25, 31.316999435424805, 469.6314697265625, 470.406494140625, 465.70794677734375
31.5, 31.568199157714844, 533.6095581054688, 535.0429077148438, 529.1571655273438
31.75, 31.818199157714844, 507.745361328125, 507.10955810546875, 502.463623046875
32.0, 32.07720184326172, 430.2015686035156, 430.7804870605469, 426.5548400878906
32.25, 32.309600830078125, 851.9071044921875, 853.6812744140625, 844.9022216796875
32.5, 32.563201904296875, 508.3122253417969, 509.40771484375, 503.9989013671875
32.75, 32.81100082397461, 221.52691650390625, 221.0396270751953, 219.52467346191406
33.0, 33.063201904296875, 451.62701416015625, 452.300048828125, 447.772705078125
33.25, 33.308998107910156, 687.096435546875, 689.5159301757812, 681.3380126953125
33.5, 33.56019973754883, 491.768798828125, 492.6979675292969, 487.5977478027344
33.75, 33.812198638916016, 311.24896240234375, 310.80511474609375, 308.60546875
34.0, 34.059600830078125, 462.9378662109375, 463.7371826171875, 459.0613098144531
34.25, 34.31560134887695, 603.51318359375, 586.533935546875, 598.4865112304688
34.5, 34.56560134887695, 483.1999206542969, 484.1787109375, 479.1686096191406
34.75, 34.81760025024414, 390.934326171875, 391.27984619140625, 387.62890625
35.0, 35.06079864501953, 469.4791259765625, 470.3924865722656, 465.5574951171875
35.25, 35.31039810180664, 552.0253295898438, 553.4510498046875, 547.4464111328125
35.5, 35.56060028076172, 497.6866760253906, 494.98248291015625, 492.7799987792969
35.75, 35.812801361083984, 429.08294677734375, 429.6978454589844, 425.4471435546875
36.0, 36.068599700927734, 890.8815307617188, 896.6060180664062, 883.8372192382812
36.25, 36.308998107910156, 519.3905029296875, 520.7532348632812, 514.982177734375
36.5, 36.56100082397461, 217.2695770263672, 214.80873107910156, 215.47698974609375
36.75, 36.80979919433594, 446.5198059082031, 447.2304992675781, 442.71380615234375
37.0, 37.06060028076172, 728.3294067382812, 731.5726928710938, 722.1944580078125
37.25, 37.311798095703125, 496.03192138671875, 497.1717529296875, 491.82745361328125
37.5, 37.5629997253418, 239.62034606933594, 238.51907348632812, 237.54493713378906
37.75, 37.81119918823242, 454.85858154296875, 455.5576171875, 451.0455017089844
38.0, 38.061798095703125, 667.7244262695312, 670.6405639648438, 662.1769409179688
38.25, 38.31159973144531, 489.0538024902344, 490.15576171875, 484.9823303222656
38.5, 38.562198638916016, 338.3121032714844, 357.61871337890625, 335.46051025390625
38.75, 38.81800079345703, 465.3793640136719, 466.1933898925781, 461.42584228515625
39.0, 39.068199157714844, 565.9631958007812, 568.123779296875, 561.17236328125
39.25, 39.32120132446289, 479.1918029785156, 480.2025451660156, 475.12115478515625
39.5, 39.56840133666992, 399.7677917480469, 399.5431823730469, 396.34295654296875
39.75, 39.81880187988281, 561.660400390625, 512.4996948242188, 555.8563232421875
40.0, 40.06119918823242, 532.4801635742188, 534.337158203125, 527.9560546875
40.25, 40.31019973754883, 477.6357116699219, 478.7423400878906, 473.6104736328125
40.5, 40.56119918823242, 419.0867919921875, 419.3031921386719, 415.55718994140625
40.75, 40.81019973754883, 918.253662109375, 893.7891845703125, 910.104248046875
41.0, 41.059600830078125, 517.9452514648438, 519.456298828125, 513.6336059570312
41.25, 41.31119918823242, 194.7235107421875, 187.82809448242188, 193.08070373535156
41.5, 41.5629997253418, 444.8390197753906, 445.3424987792969, 441.0719909667969
41.75, 41.81079864501953, 743.9725341796875, 703.7474975585938, 737.6949462890625
42.0, 42.061798095703125, 496.9498596191406, 498.3399353027344, 492.73101806640625
42.25, 42.309200286865234, 260.89813232421875, 287.43487548828125, 258.6813049316406
42.5, 42.563201904296875, 457.05145263671875, 457.5616760253906, 453.1588439941406
42.75, 42.80939865112305, 622.716064453125, 627.0188598632812, 617.4443969726562
43.0, 43.062599182128906, 487.9078674316406, 489.2139892578125, 483.7784423828125
43.25, 43.31460189819336, 334.3040466308594, 332.2687683105469, 331.46026611328125
43.5, 43.56119918823242, 462.84796142578125, 463.44281005859375, 458.9746398925781
43.75, 43.81439971923828, 586.137939453125, 589.5752563476562, 581.2743530273438
44.0, 44.06800079345703, 480.7184143066406, 481.87042236328125, 476.71026611328125
44.25, 44.316200256347656, 390.08770751953125, 389.2241516113281, 386.8022766113281
44.5, 44.56740188598633, 471.0359191894531, 471.8279113769531, 467.0953369140625
44.75, 44.810001373291016, 540.6221923828125, 543.1338500976562, 536.1398315429688
45.0, 45.068599700927734, 497.11474609375, 480.70086669921875, 492.21136474609375
45.25, 45.31039810180664, 420.8273010253906, 420.2942810058594, 417.1902770996094
45.5, 45.56060028076172, 856.2131958007812, 856.35986328125, 848.9168701171875
45.75, 45.81019973754883, 512.7953491210938, 514.882080078125, 508.5955810546875
46.0, 46.06100082397461, 216.044921875, 205.31478881835938, 213.6276397705078
46.25, 46.3114013671875, 441.26043701171875, 441.28887939453125, 437.4951171875
46.5, 46.56159973144531, 729.2157592773438, 738.5834350585938, 723.679443359375
46.75, 46.80979919433594, 500.3289794921875, 502.0428771972656, 496.2165832519531
47.0, 47.05979919433594, 282.4961242675781, 277.7923278808594, 279.8087158203125
47.25, 47.31100082397461, 456.06414794921875, 456.4034423828125, 452.1518859863281
47.5, 47.568199157714844, 630.3848876953125, 635.5610961914062, 625.4075927734375
47.75, 47.81740188598633, 485.722412109375, 487.0086669921875, 481.6310729980469
48.0, 48.05979919433594, 347.7469787597656, 345.41705322265625, 344.7684631347656
48.25, 48.31019973754883, 464.166748046875, 467.1236572265625, 460.2127380371094
48.5, 48.56079864501953, 574.2304077148438, 578.031982421875, 569.374755859375
48.75, 48.81060028076172, 479.46295166015625, 480.73797607421875, 475.4206237792969
49.0, 49.0702018737793, 410.4758605957031, 409.64117431640625, 407.0135803222656
49.25, 49.31740188598633, 505.6218566894531, 472.6885986328125, 500.6987609863281
49.5, 49.55979919433594, 533.7963256835938, 536.4110717773438, 529.3457641601562
49.75, 49.81019973754883, 446.65936279296875, 494.53851318359375, 444.33709716796875
50.0, 50.06060028076172, 430.5454406738281, 430.057373046875, 426.94366455078125
50.25, 50.31019973754883, 841.6844482421875, 853.4025268554688, 834.7428588867188
50.5, 50.562400817871094, 508.3635559082031, 504.6224670410156, 504.1280517578125
50.75, 50.8120002746582, 234.2713165283203, 229.3933868408203, 232.30023193359375
51.0, 51.0614013671875, 449.9893798828125, 454.46893310546875, 446.22467041015625
51.25, 51.30979919433594, 659.796630859375, 664.7315063476562, 654.344970703125
51.5, 51.559600830078125, 491.74468994140625, 489.677978515625, 487.6464538574219
51.75, 51.810001373291016, 345.30023193359375, 342.9377136230469, 342.39373779296875
52.0, 52.06840133666992, 466.1571044921875, 466.82049560546875, 462.19415283203125
52.25, 52.31460189819336, 576.449462890625, 564.5241088867188, 571.5755615234375
52.5, 52.56880187988281, 480.3304443359375, 481.48638916015625, 476.24462890625
52.75, 52.81700134277344, 403.56561279296875, 402.8050842285156, 400.12255859375
53.0, 53.06740188598633, 471.4571228027344, 472.20751953125, 467.4260559082031
53.25, 53.31679916381836, 525.1713256835938, 527.3419189453125, 520.7127685546875
53.5, 53.568599700927734, 468.5579833984375, 503.41522216796875, 465.8833312988281
53.75, 53.81060028076172, 429.9386901855469, 429.9756164550781, 426.3177490234375
54.0, 54.06060028076172, 848.9342651367188, 856.2495727539062, 841.9818115234375
54.25, 54.311798095703125, 503.7572326660156, 505.3970031738281, 499.55780029296875
54.5, 54.56019973754883, 229.45399475097656, 225.99313354492188, 227.57070922851562
54.75, 54.8114013671875, 453.6850280761719, 454.2137145996094, 449.89215087890625
55.0, 55.0620002746582, 674.546875, 679.8212890625, 668.9030151367188
55.25, 55.31639862060547, 490.2059631347656, 491.4603271484375, 486.1188049316406
55.5, 55.56119918823242, 322.1257019042969, 319.15081787109375, 319.3525390625
55.75, 55.808998107910156, 464.02459716796875, 464.5365295410156, 460.14727783203125
56.0, 56.06039810180664, 596.0303955078125, 599.5637817382812, 591.0895385742188
56.25, 56.312198638916016, 481.6669006347656, 482.8205261230469, 477.6510925292969
56.5, 56.562801361083984, 389.2873229980469, 400.84173583984375, 386.0027160644531
56.75, 56.80979919433594, 470.62945556640625, 471.3474426269531, 466.6280822753906
57.0, 57.065399169921875, 530.9273071289062, 533.4818115234375, 526.4325561523438
57.25, 57.316200256347656, 494.1906433105469, 540.0110473632812, 489.2663269042969
57.5, 57.56840133666992, 428.80859375, 428.3010559082031, 425.1499328613281
57.75, 57.81740188598633, 853.9342041015625, 858.5328979492188, 846.7694091796875
58.0, 58.06760025024414, 509.58819580078125, 511.62579345703125, 505.2619934082031
58.25, 58.30860137939453, 212.67958068847656, 199.95811462402344, 210.94332885742188
58.5, 58.56959915161133, 448.0601501464844, 446.5505065917969, 451.5614318847656
58.75, 58.80939865112305, 626.0191650390625, 632.3883056640625, 626.857177734375
59.0, 59.0620002746582, 484.0344543457031, 486.3758544921875, 483.72735595703125
59.25, 59.31060028076172, 390.2861328125, 388.8841552734375, 390.0234680175781
59.5, 59.559200286865234, 683.1681518554688, 591.0155639648438, 686.1421508789062
59.75, 59.809600830078125, 532.5650634765625, 536.1537475585938, 529.510986328125
60.0, 60.060001373291016, 317.7520446777344, 360.4115295410156, 258.2139587402344
