Time, Timer, measurement1.Three-phase Meter1.VLn_RMS, measurement2.Three-phase Meter2.VLn_RMS, measurement3.Three-phase Meter3.VLn_RMS
0.25, 0.2985999882221222, 470.65521240234375, 467.0609130859375, 466.6329040527344
0.5, 0.5511999726295471, 469.6672058105469, 466.08038330078125, 465.6532897949219
0.75, 0.7990000247955322, 472.7058410644531, 469.1009521484375, 468.6710510253906
1.0, 1.0477999448776245, 472.3806457519531, 468.773193359375, 468.3436584472656
1.25, 1.3001999855041504, 472.3284912109375, 468.7220153808594, 468.2925109863281
1.5, 1.5515999794006348, 472.3730773925781, 468.7650146484375, 468.33551025390625
1.75, 1.7985999584197998, 473.34246826171875, 469.7636413574219, 469.3118591308594
2.0, 2.0490000247955322, 472.8486633300781, 469.3680419921875, 468.8586730957031
2.25, 2.300600051879883, 472.7717590332031, 469.3279724121094, 468.79974365234375
2.5, 2.5483999252319336, 472.6291198730469, 469.19281005859375, 468.6585388183594
2.75, 2.7992000579833984, 472.65252685546875, 469.2290954589844, 468.6928405761719
3.0, 3.0490000247955322, 472.7760009765625, 469.3409729003906, 468.8038635253906
3.25, 3.2992000579833984, 472.7378845214844, 469.3067932128906, 468.76934814453125
3.5, 3.548799991607666, 472.7445373535156, 469.3132019042969, 468.7756652832031
3.75, 3.7983999252319336, 472.6744079589844, 469.2420654296875, 468.7045593261719
4.0, 4.048399925231934, 472.78900146484375, 469.3571472167969, 468.8194580078125
4.25, 4.297800064086914, 472.7824401855469, 469.3537902832031, 468.8161315917969
4.5, 4.548799991607666, 472.74664306640625, 469.3166198730469, 468.779052734375
4.75, 4.80079984664917, 472.7812805175781, 469.35406494140625, 468.8163757324219
5.0, 5.048399925231934, 472.723388671875, 469.2914733886719, 468.7539367675781
5.25, 5.297399997711182, 472.8149108886719, 469.3841247558594, 468.84649658203125
5.5, 5.55079984664917, 472.784912109375, 469.3515319824219, 468.81396484375
5.75, 5.798999786376953, 472.8179931640625, 469.3858642578125, 468.84832763671875
6.0, 6.05019998550415, 472.761962890625, 469.3262023925781, 468.7886657714844
6.25, 6.30019998550415, 472.74053955078125, 469.30511474609375, 468.7677001953125
6.5, 6.548600196838379, 472.83184814453125, 469.4002685546875, 468.8627014160156
6.75, 6.799600124359131, 472.8209533691406, 469.3840637207031, 468.8465270996094
7.0, 7.049200057983398, 472.8392639160156, 469.4051208496094, 468.8675231933594
7.25, 7.300600051879883, 472.81756591796875, 469.38189697265625, 468.84429931640625
7.5, 7.548999786376953, 472.7359313964844, 469.3016052246094, 468.7641296386719
7.75, 7.799799919128418, 472.8616027832031, 469.42254638671875, 468.8848571777344
8.0, 8.049200057983398, 472.7815856933594, 469.3525085449219, 468.81488037109375
8.25, 8.301400184631348, 472.7660827636719, 469.33001708984375, 468.79241943359375
8.5, 8.548800468444824, 472.7423400878906, 469.31182861328125, 468.7728576660156
8.75, 8.800000190734863, 472.7197570800781, 469.2871398925781, 468.7496032714844
9.0, 9.048999786376953, 472.8217468261719, 469.3883361816406, 468.8506164550781
9.25, 9.300200462341309, 472.86578369140625, 469.4322204589844, 468.8945617675781
9.5, 9.549799919128418, 472.8451843261719, 469.4117431640625, 468.87408447265625
9.75, 9.799799919128418, 472.69573974609375, 469.26708984375, 468.7297668457031
10.0, 10.050000190734863, 472.7349853515625, 469.3065185546875, 468.7690734863281
10.25, 10.300800323486328, 472.8140869140625, 469.3875427246094, 468.85003662109375
10.5, 10.548399925231934, 472.89862060546875, 469.46746826171875, 468.92987060546875
10.75, 10.798999786376953, 472.809814453125, 469.37799072265625, 468.8404541015625
11.0, 11.048399925231934, 472.85137939453125, 469.4214172363281, 468.88385009765625
11.25, 11.298999786376953, 472.7536315917969, 469.32904052734375, 468.7914733886719
11.5, 11.549799919128418, 472.852294921875, 469.42205810546875, 468.8843994140625
11.75, 11.799599647521973, 472.8848571777344, 469.45635986328125, 468.91864013671875
12.0, 12.050600051879883, 472.82440185546875, 469.39019775390625, 468.8525085449219
12.25, 12.300399780273438, 472.71063232421875, 469.28070068359375, 468.7430419921875
12.5, 12.549799919128418, 472.77886962890625, 469.350341796875, 468.8127136230469
12.75, 12.799599647521973, 472.887939453125, 469.4566650390625, 468.91888427734375
13.0, 13.049599647521973, 472.8535461425781, 469.42694091796875, 468.8891906738281
13.25, 13.300399780273438, 472.8672790527344, 469.443359375, 468.9056701660156
13.5, 13.550600051879883, 472.7880554199219, 469.3525085449219, 468.8150634765625
13.75, 13.800399780273438, 472.7531433105469, 469.3183898925781, 468.7808532714844
14.0, 14.051400184631348, 472.87384033203125, 469.4420471191406, 468.90447998046875
14.25, 14.29800033569336, 472.8698425292969, 469.43829345703125, 468.89996337890625
14.5, 14.54800033569336, 472.8411560058594, 469.4056701660156, 468.8681640625
14.75, 14.798199653625488, 472.8033142089844, 469.3666687011719, 468.82916259765625
15.0, 15.04800033569336, 472.7528076171875, 469.3182067871094, 468.7807312011719
15.25, 15.299799919128418, 472.8443298339844, 469.41094970703125, 468.8733825683594
15.5, 15.548999786376953, 472.8599853515625, 469.4228820800781, 468.8851623535156
15.75, 15.799400329589844, 472.83795166015625, 469.4059753417969, 468.86834716796875
16.0, 16.0492000579834, 472.72967529296875, 469.29833984375, 468.76068115234375
16.25, 16.29800033569336, 472.719970703125, 469.2896423339844, 468.7521057128906
16.5, 16.551000595092773, 472.88250732421875, 469.4508972167969, 468.91314697265625
16.75, 16.799800872802734, 472.92010498046875, 469.48590087890625, 468.9480285644531
17.0, 17.049400329589844, 472.8380126953125, 469.3978271484375, 468.860107421875
17.25, 17.29840087890625, 472.7513427734375, 469.31317138671875, 468.7756042480469
17.5, 17.548999786376953, 472.7905578613281, 469.36724853515625, 468.82965087890625
17.75, 17.801000595092773, 472.8560791015625, 469.41888427734375, 468.88128662109375
18.0, 18.04960060119629, 472.87921142578125, 469.4430236816406, 468.9053039550781
18.25, 18.298799514770508, 472.84747314453125, 469.4128723144531, 468.8753356933594
18.5, 18.54960060119629, 472.7620849609375, 469.3311767578125, 468.7936706542969
18.75, 18.79840087890625, 472.7806091308594, 469.34686279296875, 468.8094177246094
19.0, 19.048599243164062, 472.91754150390625, 469.4868469238281, 468.94921875
19.25, 19.300399780273438, 472.83966064453125, 469.4022521972656, 468.86468505859375
19.5, 19.550600051879883, 472.83160400390625, 469.39727783203125, 468.8597106933594
19.75, 19.799800872802734, 472.7483215332031, 469.3229675292969, 468.785400390625
20.0, 20.049400329589844, 472.7362060546875, 469.30389404296875, 468.766357421875
20.25, 20.299999237060547, 472.8035583496094, 469.3754577636719, 468.8378601074219
20.5, 20.547800064086914, 472.843017578125, 469.4106140136719, 468.8729553222656
20.75, 20.79759979248047, 472.83831787109375, 469.406494140625, 468.8688049316406
21.0, 21.050800323486328, 472.7977294921875, 469.3617248535156, 468.82415771484375
21.25, 21.30120086669922, 472.7214050292969, 469.2879638671875, 468.7501525878906
21.5, 21.549800872802734, 472.92694091796875, 469.492431640625, 468.9547424316406
21.75, 21.799400329589844, 472.8695068359375, 469.4355163574219, 468.8978271484375
22.0, 22.050800323486328, 472.881591796875, 469.44500732421875, 468.9073486328125
22.25, 22.298999786376953, 472.7167663574219, 469.28729248046875, 468.7499084472656
22.5, 22.5492000579834, 472.9515380859375, 469.5218200683594, 468.98419189453125
22.75, 22.79960060119629, 472.9037170410156, 469.4683837890625, 468.9308166503906
23.0, 23.048599243164062, 472.8547058105469, 469.42047119140625, 468.88287353515625
23.25, 23.299400329589844, 472.8562927246094, 469.4205017089844, 468.8829040527344
23.5, 23.549999237060547, 472.80596923828125, 469.3736572265625, 468.8360900878906
23.75, 23.798799514770508, 472.9644775390625, 469.53472900390625, 468.99700927734375
24.0, 24.048799514770508, 472.89984130859375, 469.4647216796875, 468.92694091796875
24.25, 24.29960060119629, 472.8439025878906, 469.40972900390625, 468.8720703125
24.5, 24.551799774169922, 472.8936767578125, 469.45806884765625, 468.9202880859375
24.75, 24.800800323486328, 472.8030700683594, 469.37786865234375, 468.8402404785156
25.0, 25.04759979248047, 472.9195251464844, 469.481689453125, 468.9439697265625
25.25, 25.297399520874023, 472.9519958496094, 469.5174865722656, 468.97979736328125
25.5, 25.549800872802734, 472.8568115234375, 469.42572021484375, 468.8880920410156
25.75, 25.800199508666992, 472.8785400390625, 469.44219970703125, 468.9045104980469
26.0, 26.049400329589844, 472.77288818359375, 469.3380432128906, 468.8005676269531
26.25, 26.29840087890625, 472.9197082519531, 469.48797607421875, 468.9503173828125
26.5, 26.549400329589844, 472.90460205078125, 469.468994140625, 468.9314880371094
26.75, 26.799400329589844, 472.860595703125, 469.4277038574219, 468.8901672363281
27.0, 27.049800872802734, 472.8428039550781, 469.4118347167969, 468.87396240234375
27.25, 27.297399520874023, 472.7386779785156, 469.30596923828125, 468.7685546875
27.5, 27.550199508666992, 472.9566955566406, 469.5212707519531, 468.9836120605469
27.75, 27.800199508666992, 472.86553955078125, 469.4345703125, 468.89697265625
28.0, 28.048999786376953, 472.8217468261719, 469.3889465332031, 468.85125732421875
28.25, 28.2992000579834, 472.88677978515625, 469.4536437988281, 468.915771484375
28.5, 28.548200607299805, 472.79461669921875, 469.36285400390625, 468.8252258300781
28.75, 28.798799514770508, 472.8600158691406, 469.4278869628906, 468.8900146484375
29.0, 29.048599243164062, 472.9441223144531, 469.5111389160156, 468.9732971191406
29.25, 29.300199508666992, 472.83319091796875, 469.3993225097656, 468.8616943359375
29.5, 29.550800323486328, 472.8443908691406, 469.41552734375, 468.8778991699219
29.75, 29.798599243164062, 472.7420959472656, 469.3106384277344, 468.77313232421875
30.0, 30.051599502563477, 472.8570251464844, 469.42840576171875, 468.8907775878906
30.25, 30.298200607299805, 472.8865051269531, 469.45501708984375, 468.91741943359375
30.5, 30.550199508666992, 472.8700866699219, 469.4352111816406, 468.8976135253906
30.75, 30.797800064086914, 472.82574462890625, 469.3901062011719, 468.8524169921875
31.0, 31.050800323486328, 472.7076721191406, 469.2768249511719, 468.73944091796875
31.25, 31.297800064086914, 472.8516540527344, 469.4236755371094, 468.8861083984375
31.5, 31.551000595092773, 472.8892517089844, 469.4486389160156, 468.91094970703125
31.75, 31.800199508666992, 472.8277893066406, 469.3993225097656, 468.8616943359375
32.0, 32.05120086669922, 472.7391052246094, 469.3059387207031, 468.769775390625
32.25, 32.299598693847656, 472.80084228515625, 469.3699035644531, 468.83074951171875
32.5, 32.55039978027344, 472.87176513671875, 469.44354248046875, 468.90625
32.75, 32.79819869995117, 472.8833312988281, 469.4447021484375, 468.90863037109375
33.0, 33.04840087890625, 472.803955078125, 469.3761291503906, 468.8369140625
33.25, 33.299400329589844, 472.8295593261719, 469.3996276855469, 468.8622741699219
33.5, 33.55160140991211, 472.79150390625, 469.355712890625, 468.81988525390625
33.75, 33.79779815673828, 472.91796875, 469.4883117675781, 468.948974609375
34.0, 34.05059814453125, 472.84454345703125, 469.4093322753906, 468.8723449707031
34.25, 34.29759979248047, 472.83929443359375, 469.4005126953125, 468.86474609375
34.5, 34.54859924316406, 472.76171875, 469.3346862792969, 468.7956237792969
34.75, 34.79719924926758, 472.79791259765625, 469.365478515625, 468.828369140625
35.0, 35.04800033569336, 472.86822509765625, 469.42431640625, 468.8885192871094
35.25, 35.30080032348633, 472.9069519042969, 469.4770812988281, 468.9378662109375
35.5, 35.55120086669922, 472.8403625488281, 469.40777587890625, 468.8708190917969
35.75, 35.79719924926758, 472.7406921386719, 469.3097229003906, 468.77398681640625
36.0, 36.05120086669922, 472.8328552246094, 469.4007263183594, 468.86151123046875
36.25, 36.299198150634766, 472.8876037597656, 469.45294189453125, 468.9157409667969
36.5, 36.54859924316406, 472.86712646484375, 469.4278869628906, 468.8919677734375
36.75, 36.79779815673828, 472.8543395996094, 469.42828369140625, 468.8889465332031
37.0, 37.049800872802734, 472.8017883300781, 469.3661193847656, 468.828857421875
37.25, 37.299598693847656, 472.73638916015625, 469.3055419921875, 468.7697448730469
37.5, 37.54819869995117, 472.8852844238281, 469.45416259765625, 468.9148864746094
37.75, 37.79899978637695, 472.78411865234375, 469.3536071777344, 468.8151550292969
38.0, 38.05120086669922, 472.82733154296875, 469.3914794921875, 468.85577392578125
38.25, 38.29899978637695, 472.7834777832031, 469.35565185546875, 468.8164978027344
38.5, 38.55039978027344, 472.74444580078125, 469.3202819824219, 468.7825622558594
38.75, 38.80099868774414, 472.9085388183594, 469.47607421875, 468.9402770996094
39.0, 39.04759979248047, 472.90899658203125, 469.47509765625, 468.9359130859375
39.25, 39.29899978637695, 472.8257141113281, 469.3894958496094, 468.8525695800781
39.5, 39.55120086669922, 472.7140197753906, 469.27923583984375, 468.7436218261719
39.75, 39.80059814453125, 472.8915100097656, 469.46441650390625, 468.92523193359375
40.0, 40.04819869995117, 472.8870849609375, 469.4534912109375, 468.9162902832031
40.25, 40.29999923706055, 472.8487548828125, 469.4124755859375, 468.87677001953125
40.5, 40.54999923706055, 472.8350524902344, 469.4001770019531, 468.86083984375
40.75, 40.79800033569336, 472.72296142578125, 469.2872619628906, 468.7500305175781
41.0, 41.049400329589844, 472.997314453125, 469.56121826171875, 469.02508544921875
41.25, 41.29759979248047, 472.9448547363281, 469.51544189453125, 468.97607421875
41.5, 41.54999923706055, 472.8378601074219, 469.404541015625, 468.8659362792969
41.75, 41.79679870605469, 472.8543395996094, 469.42279052734375, 468.8870544433594
42.0, 42.04759979248047, 472.8028869628906, 469.3706359863281, 468.8316650390625
42.25, 42.30080032348633, 472.91998291015625, 469.4870300292969, 468.9484558105469
42.5, 42.55039978027344, 472.893310546875, 469.46160888671875, 468.9258117675781
42.75, 42.79719924926758, 472.806396484375, 469.3785095214844, 468.8393859863281
43.0, 43.051998138427734, 472.8217468261719, 469.39044189453125, 468.8532409667969
43.25, 43.299400329589844, 472.7467956542969, 469.320068359375, 468.784423828125
43.5, 43.549400329589844, 472.9002990722656, 469.47314453125, 468.93402099609375
43.75, 43.799598693847656, 472.8782653808594, 469.4482727050781, 468.9111328125
44.0, 44.049598693847656, 472.7824401855469, 469.35009765625, 468.81317138671875
44.25, 44.297401428222656, 472.8160705566406, 469.3878173828125, 468.8486633300781
44.5, 44.55139923095703, 472.8116455078125, 469.3884582519531, 468.85125732421875
44.75, 44.80039978027344, 472.8829040527344, 469.4559020996094, 468.9199523925781
45.0, 45.047401428222656, 472.9085693359375, 469.4821472167969, 468.9426574707031
45.25, 45.29819869995117, 472.818115234375, 469.3947448730469, 468.85748291015625
45.5, 45.54840087890625, 472.7749938964844, 469.3529357910156, 468.8172302246094
45.75, 45.80120086669922, 472.7806701660156, 469.35498046875, 468.8157958984375
46.0, 46.049598693847656, 472.90264892578125, 469.4799499511719, 468.9426574707031
46.25, 46.29759979248047, 472.90478515625, 469.4722595214844, 468.9364013671875
46.5, 46.54759979248047, 472.8121032714844, 469.3924255371094, 468.8531799316406
46.75, 46.800201416015625, 472.8028564453125, 469.3770446777344, 468.8401184082031
47.0, 47.05139923095703, 472.7737731933594, 469.3402099609375, 468.8045654296875
47.25, 47.29759979248047, 472.8806457519531, 469.4558410644531, 468.91656494140625
47.5, 47.549800872802734, 472.8996887207031, 469.473876953125, 468.93670654296875
47.75, 47.79999923706055, 472.77825927734375, 469.34967041015625, 468.8139953613281
48.0, 48.04800033569336, 472.833984375, 469.40252685546875, 468.8632507324219
48.25, 48.29859924316406, 472.7535400390625, 469.3248291015625, 468.78607177734375
48.5, 48.549400329589844, 472.8501281738281, 469.4168701171875, 468.88104248046875
48.75, 48.80080032348633, 472.8720397949219, 469.441650390625, 468.90234375
49.0, 49.04759979248047, 472.83209228515625, 469.4004821777344, 468.86346435546875
49.25, 49.297000885009766, 472.75970458984375, 469.32281494140625, 468.7871398925781
49.5, 49.55080032348633, 472.8057861328125, 469.3805847167969, 468.8412780761719
49.75, 49.79759979248047, 472.91455078125, 469.48211669921875, 468.9447021484375
50.0, 50.047401428222656, 472.9533386230469, 469.518798828125, 468.9829406738281
50.25, 50.29859924316406, 472.8416442871094, 469.4099426269531, 468.8706970214844
50.5, 50.54880142211914, 472.73321533203125, 469.298583984375, 468.76007080078125
50.75, 50.79880142211914, 476.3082580566406, 473.85894775390625, 472.3155212402344
51.0, 51.04899978637695, 476.33551025390625, 473.7346496582031, 472.3358154296875
51.25, 51.29800033569336, 476.0455017089844, 473.4017333984375, 472.038818359375
51.5, 51.549400329589844, 476.3482971191406, 474.15802001953125, 472.3307800292969
51.75, 51.79719924926758, 471.53826904296875, 470.1575622558594, 467.55389404296875
52.0, 52.049400329589844, 471.48736572265625, 471.21710205078125, 467.49957275390625
52.25, 52.299598693847656, 471.8140563964844, 472.1014709472656, 467.8144836425781
52.5, 52.55059814453125, 472.1698913574219, 473.0087585449219, 468.163330078125
52.75, 52.79819869995117, 472.2473449707031, 473.6117858886719, 468.2364196777344
53.0, 53.04899978637695, 476.7669677734375, 479.48150634765625, 472.71746826171875
53.25, 53.299598693847656, 475.2696533203125, 479.5061950683594, 471.2281494140625
53.5, 53.549400329589844, 469.6392822265625, 474.9483337402344, 465.6481628417969
53.75, 53.799598693847656, 469.1673278808594, 475.04876708984375, 465.1803894042969
54.0, 54.05120086669922, 472.7684020996094, 478.4273986816406, 470.693603515625
54.25, 54.29840087890625, 471.0723876953125, 476.4849853515625, 469.0269470214844
54.5, 54.54819869995117, 471.06671142578125, 475.8974609375, 469.08355712890625
54.75, 54.79800033569336, 473.2959289550781, 480.15277099609375, 469.934814453125
55.0, 55.04999923706055, 472.5249328613281, 480.0972595214844, 469.3736572265625
55.25, 55.29899978637695, 471.99163818359375, 478.39910888671875, 470.4818420410156
55.5, 55.54899978637695, 473.0014953613281, 480.0888977050781, 471.22198486328125
55.75, 55.799598693847656, 472.4045715332031, 480.4337463378906, 470.244873046875
56.0, 56.04819869995117, 468.43145751953125, 474.8951110839844, 469.731201171875
56.25, 56.29779815673828, 470.72113037109375, 477.2523193359375, 473.2625427246094
56.5, 56.549800872802734, 469.46807861328125, 477.4515380859375, 471.74725341796875
56.75, 56.799800872802734, 466.02069091796875, 472.6966857910156, 469.4442443847656
57.0, 57.05099868774414, 465.89862060546875, 471.1102600097656, 470.23187255859375
57.25, 57.29719924926758, 467.00439453125, 472.8263244628906, 470.9385070800781
57.5, 57.547000885009766, 466.4295654296875, 472.3773498535156, 470.32366943359375
57.75, 57.79800033569336, 466.5927429199219, 472.2878112792969, 470.5417785644531
58.0, 58.049198150634766, 466.3307189941406, 471.8191223144531, 470.3246154785156
58.25, 58.299800872802734, 466.0688171386719, 471.3408508300781, 470.17724609375
58.5, 58.54759979248047, 465.82977294921875, 470.6672058105469, 470.0931701660156
58.75, 58.80120086669922, 465.97320556640625, 470.6059265136719, 470.2170104980469
59.0, 59.049400329589844, 465.97735595703125, 470.55426025390625, 470.1266174316406
59.25, 59.29819869995117, 466.6515808105469, 471.702880859375, 470.4673156738281
59.5, 59.549198150634766, 465.16070556640625, 470.2279357910156, 469.240966796875
59.75, 59.79899978637695, 465.07269287109375, 469.1142883300781, 469.5407409667969
