Time, Timer, measurement1.Three-phase Meter1.VLn_RMS, measurement2.Three-phase Meter2.VLn_RMS, measurement3.Three-phase Meter3.VLn_RMS
0.25, 0.2996000051498413, 470.646728515625, 467.05242919921875, 466.6243591308594
0.5, 0.5576000213623047, 469.6935729980469, 466.10858154296875, 465.6813659667969
0.75, 0.8009999990463257, 470.81591796875, 467.2167053222656, 466.7898864746094
1.0, 1.055799961090088, 470.6562805175781, 467.0620422363281, 466.6355895996094
1.25, 1.2992000579833984, 470.56573486328125, 466.9747314453125, 466.54815673828125
1.5, 1.551800012588501, 470.6330871582031, 467.04052734375, 466.6131591796875
1.75, 1.8121999502182007, 471.4406433105469, 467.89813232421875, 467.42236328125
2.0, 2.0703999996185303, 471.1275939941406, 467.6666564941406, 467.14910888671875
2.25, 2.3185999393463135, 470.9195251464844, 467.49273681640625, 466.9642028808594
2.5, 2.570199966430664, 470.8907165527344, 467.46441650390625, 466.9316101074219
2.75, 2.819000005722046, 470.9172668457031, 467.4940490722656, 466.9596252441406
3.0, 3.070199966430664, 470.84954833984375, 467.4241943359375, 466.88922119140625
3.25, 3.314199924468994, 470.9418640136719, 467.5220947265625, 466.9868469238281
3.5, 3.5676000118255615, 470.8494873046875, 467.4266357421875, 466.891357421875
3.75, 3.811199903488159, 470.9338073730469, 467.5224609375, 466.9869079589844
4.0, 4.068399906158447, 470.9344787597656, 467.51385498046875, 466.9783630371094
4.25, 4.311600208282471, 470.9381408691406, 467.51263427734375, 466.9770202636719
4.5, 4.571800231933594, 470.89678955078125, 467.4804992675781, 466.9449157714844
4.75, 4.8206000328063965, 470.9503479003906, 467.5222473144531, 466.986572265625
5.0, 5.06220006942749, 471.0011291503906, 467.58587646484375, 467.0500793457031
5.25, 5.317999839782715, 470.997314453125, 467.58355712890625, 467.0477294921875
5.5, 5.563799858093262, 470.9674072265625, 467.5440673828125, 467.00823974609375
5.75, 5.813799858093262, 470.9309387207031, 467.5166320800781, 466.9809265136719
6.0, 6.070000171661377, 470.9100341796875, 467.4948425292969, 466.95916748046875
6.25, 6.311999797821045, 471.0397033691406, 467.618896484375, 467.0832214355469
6.5, 6.567200183868408, 471.00115966796875, 467.58221435546875, 467.0465087890625
6.75, 6.816999912261963, 470.9671325683594, 467.5407409667969, 467.0052185058594
7.0, 7.068600177764893, 470.9875793457031, 467.5674743652344, 467.0318298339844
7.25, 7.310800075531006, 471.02996826171875, 467.6040344238281, 467.06829833984375
7.5, 7.5706000328063965, 471.0257263183594, 467.6039733886719, 467.0682678222656
7.75, 7.820400238037109, 470.9911804199219, 467.5631103515625, 467.02740478515625
8.0, 8.062600135803223, 470.850830078125, 467.4198913574219, 466.88427734375
8.25, 8.312000274658203, 471.0337219238281, 467.6145324707031, 467.0786437988281
8.5, 8.562800407409668, 470.9930419921875, 467.57763671875, 467.04180908203125
8.75, 8.8193998336792, 471.036865234375, 467.6104431152344, 467.0745544433594
9.0, 9.062199592590332, 470.9788513183594, 467.5602111816406, 467.0242919921875
9.25, 9.31879997253418, 470.9930725097656, 467.5719909667969, 467.0361633300781
9.5, 9.56980037689209, 471.04815673828125, 467.62091064453125, 467.0850524902344
9.75, 9.82040023803711, 471.0509338378906, 467.6285400390625, 467.0926208496094
10.0, 10.069999694824219, 471.03900146484375, 467.616943359375, 467.0812072753906
10.25, 10.311599731445312, 470.9944763183594, 467.5648498535156, 467.02911376953125
10.5, 10.56820011138916, 471.0139465332031, 467.58447265625, 467.0487365722656
10.75, 10.820799827575684, 471.0095520019531, 467.5836486816406, 467.04791259765625
11.0, 11.067399978637695, 471.00439453125, 467.5788879394531, 467.04315185546875
11.25, 11.318400382995605, 470.99761962890625, 467.57354736328125, 467.037841796875
11.5, 11.569600105285645, 471.0264587402344, 467.59234619140625, 467.056396484375
11.75, 11.819199562072754, 471.0774230957031, 467.645751953125, 467.1098327636719
12.0, 12.062399864196777, 471.02178955078125, 467.5948486328125, 467.05889892578125
12.25, 12.314599990844727, 471.00177001953125, 467.5692443847656, 467.0332946777344
12.5, 12.562399864196777, 471.1375732421875, 467.704833984375, 467.16876220703125
12.75, 12.812199592590332, 471.0279846191406, 467.6090393066406, 467.0731506347656
13.0, 13.06980037689209, 470.9997253417969, 467.5736083984375, 467.0377197265625
13.25, 13.312199592590332, 471.0467834472656, 467.6183166503906, 467.0824279785156
13.5, 13.5693998336792, 471.0033874511719, 467.5796813964844, 467.04400634765625
13.75, 13.811599731445312, 471.0162658691406, 467.5787658691406, 467.0429992675781
14.0, 14.069999694824219, 471.0299377441406, 467.6008605957031, 467.06512451171875
14.25, 14.32040023803711, 471.0509948730469, 467.6240539550781, 467.08831787109375
14.5, 14.562600135803223, 470.9997253417969, 467.5619201660156, 467.0262145996094
14.75, 14.811800003051758, 471.1465148925781, 467.713134765625, 467.1773681640625
15.0, 15.06760025024414, 471.0285339355469, 467.6047058105469, 467.0688781738281
15.25, 15.319000244140625, 470.9939880371094, 467.56854248046875, 467.03271484375
15.5, 15.567999839782715, 471.0398864746094, 467.60418701171875, 467.0683288574219
15.75, 15.810600280761719, 471.01025390625, 467.5829772949219, 467.047119140625
16.0, 16.069400787353516, 471.0262756347656, 467.6029968261719, 467.0671691894531
16.25, 16.311800003051758, 471.0445556640625, 467.6175231933594, 467.0816345214844
16.5, 16.564800262451172, 471.05023193359375, 467.62176513671875, 467.0858154296875
16.75, 16.816999435424805, 471.037109375, 467.6033020019531, 467.0675048828125
17.0, 17.061599731445312, 471.13470458984375, 467.7105407714844, 467.1746520996094
17.25, 17.31679916381836, 471.01544189453125, 467.5935363769531, 467.0577392578125
17.5, 17.563600540161133, 471.0255126953125, 467.60296630859375, 467.0671691894531
17.75, 17.819400787353516, 471.0501403808594, 467.6239929199219, 467.0882263183594
18.0, 18.062599182128906, 471.0819396972656, 467.6567687988281, 467.1210632324219
18.25, 18.31220054626465, 471.0716552734375, 467.6468200683594, 467.1109313964844
18.5, 18.569400787353516, 471.06646728515625, 467.64202880859375, 467.1063537597656
18.75, 18.820199966430664, 470.9932556152344, 467.5683898925781, 467.0326232910156
19.0, 19.067399978637695, 470.9850158691406, 467.55743408203125, 467.0216064453125
19.25, 19.311399459838867, 471.0648193359375, 467.6404724121094, 467.1045227050781
19.5, 19.56839942932129, 471.03900146484375, 467.61968994140625, 467.08380126953125
19.75, 19.81760025024414, 470.9947814941406, 467.5731201171875, 467.0372314453125
20.0, 20.070999145507812, 471.0391540527344, 467.6189880371094, 467.08306884765625
20.25, 20.317800521850586, 471.0391845703125, 467.6133117675781, 467.0775146484375
20.5, 20.571199417114258, 471.01275634765625, 467.58587646484375, 467.0500793457031
20.75, 20.81879997253418, 471.009033203125, 467.5841979980469, 467.0484313964844
21.0, 21.068599700927734, 471.00311279296875, 467.56890869140625, 467.0331726074219
21.25, 21.31100082397461, 471.06951904296875, 467.6400451660156, 467.10430908203125
21.5, 21.56879997253418, 470.9770202636719, 467.5578918457031, 467.02215576171875
21.75, 21.812400817871094, 471.09918212890625, 467.6649475097656, 467.1290588378906
22.0, 22.067399978637695, 470.971923828125, 467.54339599609375, 467.0077209472656
22.25, 22.31879997253418, 471.01373291015625, 467.5788879394531, 467.0431213378906
22.5, 22.562000274658203, 471.01910400390625, 467.59375, 467.0578308105469
22.75, 22.818199157714844, 471.0436096191406, 467.6246643066406, 467.0887756347656
23.0, 23.070999145507812, 471.10028076171875, 467.6725158691406, 467.13653564453125
23.25, 23.319000244140625, 471.01861572265625, 467.5921325683594, 467.0562744140625
23.5, 23.570999145507812, 471.0447082519531, 467.6172180175781, 467.081298828125
23.75, 23.812400817871094, 471.0475158691406, 467.6272277832031, 467.0913391113281
24.0, 24.062000274658203, 471.00689697265625, 467.5869445800781, 467.0511779785156
24.25, 24.311800003051758, 470.99078369140625, 467.5703430175781, 467.03460693359375
24.5, 24.561800003051758, 471.0447082519531, 467.6195068359375, 467.08380126953125
24.75, 24.81800079345703, 473.79296875, 472.05169677734375, 469.8331604003906
25.0, 25.068599700927734, 474.57489013671875, 473.96392822265625, 470.60675048828125
25.25, 25.311800003051758, 475.7167053222656, 507.05438232421875, 471.8372802734375
25.5, 25.56279945373535, 469.6854248046875, 485.5243835449219, 465.79833984375
25.75, 25.811800003051758, 471.9804382324219, 479.0169677734375, 468.0658874511719
26.0, 26.062599182128906, 472.3909912109375, 474.3117980957031, 468.4640808105469
26.25, 26.316200256347656, 477.927490234375, 449.60980224609375, 473.8847961425781
26.5, 26.570999145507812, 478.1343994140625, 462.3091735839844, 474.112548828125
26.75, 26.81760025024414, 476.3402099609375, 468.6180725097656, 472.3526916503906
27.0, 27.06220054626465, 475.6285400390625, 472.2078857421875, 471.6459045410156
27.25, 27.320199966430664, 475.849609375, 474.49371337890625, 471.8686218261719
27.5, 27.569599151611328, 682.4115600585938, 705.4213256835938, 676.8494262695312
27.75, 27.81920051574707, 468.2831115722656, 494.1144104003906, 464.4318542480469
28.0, 28.062000274658203, 470.06646728515625, 483.4917297363281, 466.1734619140625
28.25, 28.319599151611328, 471.3713073730469, 477.36456298828125, 467.4493713378906
28.5, 28.569799423217773, 333.59893798828125, 304.4372253417969, 330.6982421875
28.75, 28.81599998474121, 479.2652282714844, 454.62103271484375, 475.2068786621094
29.0, 29.069599151611328, 477.26934814453125, 464.9797058105469, 473.25238037109375
29.25, 29.31760025024414, 475.8265075683594, 470.272216796875, 471.8314208984375
29.5, 29.56999969482422, 475.7994384765625, 473.7262268066406, 471.8087158203125
29.75, 29.811199188232422, 475.5692138671875, 475.23565673828125, 471.58245849609375
30.0, 30.066999435424805, 472.2953796386719, 503.4363098144531, 468.41455078125
30.25, 30.31060028076172, 469.1891784667969, 486.33331298828125, 465.3074645996094
30.5, 30.56719970703125, 470.78399658203125, 479.0950927734375, 466.8692932128906
30.75, 30.812000274658203, 471.5718688964844, 475.4950866699219, 467.64910888671875
31.0, 31.06839942932129, 467.71923828125, 436.48052978515625, 463.7217712402344
31.25, 31.311800003051758, 478.8393249511719, 461.2466735839844, 474.8006286621094
31.5, 31.56839942932129, 476.5317687988281, 468.48602294921875, 472.5342712402344
31.75, 31.820199966430664, 476.2281799316406, 472.8740539550781, 472.2301025390625
32.0, 32.07120132446289, 475.8972473144531, 474.934326171875, 471.91583251953125
32.25, 32.31380081176758, 492.6681213378906, 527.7442626953125, 488.64263916015625
32.5, 32.5713996887207, 468.7840881347656, 488.6642761230469, 464.9100036621094
32.75, 32.81660079956055, 471.0508117675781, 480.9570007324219, 467.1435241699219
33.0, 33.0620002746582, 472.1188049316406, 476.9757080078125, 468.1766052246094
33.25, 33.31999969482422, 392.86761474609375, 360.09381103515625, 389.4723205566406
33.5, 33.56740188598633, 479.8588562011719, 457.0566101074219, 475.7984924316406
33.75, 33.811798095703125, 477.5445556640625, 466.43878173828125, 473.526123046875
34.0, 34.06880187988281, 476.7181396484375, 471.522216796875, 472.7266845703125
34.25, 34.31999969482422, 476.2108459472656, 474.4228820800781, 472.2173767089844
34.5, 34.56100082397461, 586.9200439453125, 619.6546630859375, 582.122802734375
34.75, 34.812198638916016, 468.3125, 492.802978515625, 464.4537658691406
35.0, 35.06159973144531, 470.7073059082031, 483.68756103515625, 466.8036193847656
35.25, 35.31660079956055, 472.32220458984375, 478.17779541015625, 468.3891296386719
35.5, 35.568199157714844, 289.4554443359375, 261.01220703125, 286.90155029296875
35.75, 35.81919860839844, 479.2138671875, 453.4303283691406, 475.1510009765625
36.0, 36.06959915161133, 477.6990051269531, 464.8927307128906, 473.6826477050781
36.25, 36.3114013671875, 476.9830627441406, 470.74920654296875, 472.9757385253906
36.5, 36.57059860229492, 476.365478515625, 474.0732116699219, 472.3564147949219
36.75, 36.81919860839844, 677.4927978515625, 703.0690307617188, 671.9676513671875
37.0, 37.062198638916016, 469.013916015625, 495.03021240234375, 465.1516418457031
37.25, 37.3129997253418, 470.476318359375, 484.6853942871094, 466.57354736328125
37.5, 37.569801330566406, 472.2528991699219, 478.8478088378906, 468.32586669921875
37.75, 37.81679916381836, 472.70977783203125, 475.43157958984375, 468.770751953125
38.0, 38.069400787353516, 477.9836120605469, 450.53546142578125, 473.93310546875
38.25, 38.31779861450195, 478.2317810058594, 464.45953369140625, 474.209716796875
38.5, 38.57059860229492, 477.161865234375, 470.3931579589844, 473.1502380371094
38.75, 38.81439971923828, 476.4819641113281, 473.7373962402344, 472.4857177734375
39.0, 39.062801361083984, 739.6216430664062, 757.6629638671875, 733.5665893554688
39.25, 39.31119918823242, 469.59429931640625, 497.9945373535156, 465.74029541015625
39.5, 39.56719970703125, 470.4035339355469, 485.17816162109375, 466.4938049316406
39.75, 39.81919860839844, 472.24603271484375, 479.1800842285156, 468.31982421875
40.0, 40.06840133666992, 472.6929931640625, 475.66729736328125, 468.76605224609375
40.25, 40.3202018737793, 475.1549377441406, 445.8223876953125, 471.1028137207031
40.5, 40.57080078125, 478.69427490234375, 463.663818359375, 474.66107177734375
40.75, 40.81660079956055, 476.7524108886719, 469.9046325683594, 472.75384521484375
41.0, 41.062198638916016, 475.936767578125, 473.7706298828125, 471.94305419921875
41.25, 41.31760025024414, 570.2066650390625, 603.58154296875, 565.5359497070312
41.5, 41.562198638916016, 468.0986633300781, 493.4392395019531, 464.2376403808594
41.75, 41.819000244140625, 470.9095153808594, 483.89190673828125, 467.022705078125
42.0, 42.06679916381836, 472.57470703125, 478.4761962890625, 468.6414489746094
42.25, 42.319000244140625, 310.45172119140625, 294.4408874511719, 308.15960693359375
42.5, 42.56880187988281, 479.2674560546875, 453.0888366699219, 475.20703125
42.75, 42.81119918823242, 478.3027648925781, 464.6646423339844, 474.2806091308594
43.0, 43.06159973144531, 477.2788391113281, 470.6142272949219, 473.27362060546875
43.25, 43.311798095703125, 476.5739440917969, 474.11224365234375, 472.57415771484375
43.5, 43.562599182128906, 601.98974609375, 632.3003540039062, 597.0242309570312
43.75, 43.81660079956055, 468.7294921875, 494.6884460449219, 464.87567138671875
44.0, 44.0629997253418, 470.8643493652344, 484.1980895996094, 466.9568176269531
44.25, 44.31760025024414, 472.440673828125, 478.9498596191406, 468.50299072265625
44.5, 44.57059860229492, 472.20684814453125, 474.9389953613281, 468.3196105957031
44.75, 44.819801330566406, 478.5978088378906, 451.6817626953125, 474.54779052734375
45.0, 45.06880187988281, 478.4872131347656, 464.39337158203125, 474.4588623046875
45.25, 45.310001373291016, 476.7063903808594, 470.4179992675781, 472.7005920410156
45.5, 45.56660079956055, 475.91046142578125, 474.327392578125, 471.914794921875
45.75, 45.819801330566406, 486.134765625, 523.121826171875, 476.6455078125
46.0, 46.06999969482422, 473.6392517089844, 494.0768737792969, 472.4815673828125
46.25, 46.316001892089844, 474.0974426269531, 483.9384765625, 474.7218322753906
46.5, 46.56919860839844, 474.88482666015625, 479.1155700683594, 475.02752685546875
46.75, 46.81679916381836, 475.8416442871094, 476.7202453613281, 475.4600524902344
47.0, 47.07040023803711, 473.98419189453125, 441.5588073730469, 486.9578552246094
47.25, 47.31779861450195, 477.947265625, 461.0299072265625, 480.2709655761719
47.5, 47.57080078125, 478.6789245605469, 470.7965087890625, 477.8353576660156
47.75, 47.81420135498047, 478.485595703125, 475.260009765625, 477.2414855957031
48.0, 48.069400787353516, 584.325439453125, 622.517578125, 557.3216552734375
48.25, 48.31079864501953, 478.3979187011719, 505.23052978515625, 468.2713928222656
48.5, 48.56660079956055, 475.6971130371094, 488.69659423828125, 473.8219299316406
48.75, 48.81880187988281, 475.4252014160156, 481.3209228515625, 475.5693359375
49.0, 49.06959915161133, 474.783203125, 476.72381591796875, 475.138916015625
49.25, 49.31800079345703, 461.9239501953125, 423.1533508300781, 481.6188659667969
49.5, 49.57059860229492, 476.53399658203125, 456.603515625, 480.95025634765625
49.75, 49.81660079956055, 478.1434020996094, 468.1959533691406, 478.40838623046875
50.0, 50.07059860229492, 478.09088134765625, 474.0564880371094, 477.5049743652344
50.25, 50.3202018737793, 478.5033874511719, 477.1551208496094, 478.08447265625
50.5, 50.566200256347656, 480.5382080078125, 512.9266357421875, 466.7998352050781
50.75, 50.81119918823242, 475.5776062011719, 492.3677978515625, 472.52886962890625
51.0, 51.06159973144531, 474.9665832519531, 482.5619201660156, 475.0596923828125
51.25, 51.319000244140625, 474.82257080078125, 477.6741027832031, 475.3495788574219
51.5, 51.568199157714844, 305.1546630859375, 273.45379638671875, 326.1033935546875
51.75, 51.81060028076172, 474.01959228515625, 444.2727966308594, 485.4373474121094
52.0, 52.06159973144531, 477.6159362792969, 462.9783935546875, 479.6365051269531
52.25, 52.3213996887207, 478.09503173828125, 471.50048828125, 477.7440490722656
52.5, 52.562198638916016, 478.6700439453125, 475.5964050292969, 478.25091552734375
52.75, 52.8114013671875, 647.877685546875, 680.5166625976562, 620.9523315429688
53.0, 53.069801330566406, 477.61053466796875, 504.48779296875, 468.02703857421875
53.25, 53.31159973144531, 475.36895751953125, 488.96759033203125, 473.52020263671875
53.5, 53.56779861450195, 474.7822570800781, 480.8083190917969, 475.0709228515625
53.75, 53.81919860839844, 474.9910888671875, 477.1843566894531, 475.58343505859375
54.0, 54.069801330566406, 432.3199462890625, 390.4793395996094, 456.7214660644531
54.25, 54.319000244140625, 475.9158630371094, 451.6268615722656, 483.3061828613281
54.5, 54.56719970703125, 477.7862854003906, 465.4432067871094, 478.80548095703125
54.75, 54.81119918823242, 478.6261291503906, 472.6906433105469, 478.06439208984375
55.0, 55.0614013671875, 478.4349670410156, 475.7366027832031, 477.700927734375
55.25, 55.3114013671875, 568.9338989257812, 608.34912109375, 542.2244262695312
55.5, 55.569400787353516, 477.3353271484375, 502.35015869140625, 468.9270935058594
55.75, 55.81700134277344, 475.2555847167969, 487.83746337890625, 473.8013610839844
56.0, 56.07080078125, 475.0546875, 480.32904052734375, 475.3955383300781
56.25, 56.312400817871094, 475.0671691894531, 476.6347351074219, 475.5452575683594
56.5, 56.5620002746582, 465.202392578125, 427.2947692871094, 483.82208251953125
56.75, 56.81100082397461, 476.490478515625, 457.1248474121094, 480.7277526855469
57.0, 57.06779861450195, 478.0333251953125, 468.847412109375, 478.1432800292969
57.25, 57.3129997253418, 477.9883728027344, 474.03619384765625, 477.35772705078125
57.5, 57.57080078125, 478.2324523925781, 476.95062255859375, 477.73974609375
57.75, 57.81639862060547, 479.6335754394531, 510.68994140625, 466.80908203125
58.0, 58.06919860839844, 475.4828796386719, 490.61187744140625, 473.1142272949219
58.25, 58.31100082397461, 475.0070495605469, 482.06500244140625, 475.1360778808594
58.5, 58.569801330566406, 475.0250244140625, 477.4032287597656, 475.5253601074219
58.75, 58.81119918823242, 376.4547424316406, 335.97113037109375, 402.5228576660156
59.0, 59.062198638916016, 475.4388427734375, 449.8223876953125, 483.67352294921875
59.25, 59.31740188598633, 477.845458984375, 465.3746337890625, 478.92919921875
59.5, 59.562198638916016, 478.077880859375, 472.2928771972656, 477.5786437988281
59.75, 59.81159973144531, 478.7064514160156, 476.18994140625, 478.2489318847656
60.0, 60.06719970703125, 499.9422607421875, 540.0457763671875, 478.1873474121094
