Time, Timer, measurement1.Three-phase Meter1.VLn_RMS, measurement2.Three-phase Meter2.VLn_RMS, measurement3.Three-phase Meter3.VLn_RMS
0.25, 0.2971999943256378, 473.3416748046875, 469.7281799316406, 469.298828125
0.5, 0.5496000051498413, 469.6054382324219, 466.0187683105469, 465.5921325683594
0.75, 0.7993999719619751, 469.7427673339844, 466.155029296875, 465.7282409667969
1.0, 1.0468000173568726, 469.7203063964844, 466.1325988769531, 465.7059020996094
1.25, 1.2984000444412231, 469.7131042480469, 466.1255187988281, 465.6988525390625
1.5, 1.5484000444412231, 469.7418212890625, 466.1539611816406, 465.7272644042969
1.75, 1.7968000173568726, 470.8293151855469, 467.2692565917969, 466.8203430175781
2.0, 2.0483999252319336, 470.0694580078125, 466.61090087890625, 466.10455322265625
2.25, 2.2983999252319336, 470.09735107421875, 466.66986083984375, 466.14459228515625
2.5, 2.5485999584198, 470.00506591796875, 466.5885009765625, 466.0569763183594
2.75, 2.7960000038146973, 469.9967956542969, 466.5836486816406, 466.05010986328125
3.0, 3.0485999584198, 469.995849609375, 466.5838317871094, 466.0495300292969
3.25, 3.295599937438965, 469.99615478515625, 466.58441162109375, 466.0498962402344
3.5, 3.5464000701904297, 470.01519775390625, 466.60357666015625, 466.06890869140625
3.75, 3.796799898147583, 470.0179748535156, 466.6063537597656, 466.07171630859375
4.0, 4.049799919128418, 470.0180969238281, 466.6064453125, 466.0717468261719
4.25, 4.2982001304626465, 470.021240234375, 466.6094970703125, 466.07489013671875
4.5, 4.548399925231934, 470.01025390625, 466.5987243652344, 466.06414794921875
4.75, 4.796599864959717, 470.03997802734375, 466.628173828125, 466.0935974121094
5.0, 5.049799919128418, 470.036865234375, 466.625, 466.0904235839844
5.25, 5.296599864959717, 470.05096435546875, 466.6390075683594, 466.10443115234375
5.5, 5.549600124359131, 470.0401916503906, 466.62835693359375, 466.09381103515625
5.75, 5.797399997711182, 470.046630859375, 466.63470458984375, 466.10015869140625
6.0, 6.049200057983398, 470.1148681640625, 466.703857421875, 466.1691589355469
6.25, 6.30019998550415, 470.0511779785156, 466.6392517089844, 466.1046447753906
6.5, 6.547599792480469, 470.0645446777344, 466.6525573730469, 466.11785888671875
6.75, 6.798399925231934, 470.07794189453125, 466.66583251953125, 466.1311340332031
7.0, 7.049200057983398, 470.0664978027344, 466.654541015625, 466.11981201171875
7.25, 7.296199798583984, 470.0743713378906, 466.6623229980469, 466.1275939941406
7.5, 7.549799919128418, 470.0839538574219, 466.67181396484375, 466.1370544433594
7.75, 7.79580020904541, 470.095458984375, 466.68304443359375, 466.1483459472656
8.0, 8.04640007019043, 470.0860595703125, 466.67388916015625, 466.13922119140625
8.25, 8.29800033569336, 470.08447265625, 466.6722717285156, 466.13763427734375
8.5, 8.549799919128418, 470.1009216308594, 466.6885986328125, 466.1539306640625
8.75, 8.799400329589844, 470.0735778808594, 466.6614990234375, 466.126953125
9.0, 9.04800033569336, 470.0621337890625, 466.650146484375, 466.1155700683594
9.25, 9.29800033569336, 470.0859680175781, 466.6741943359375, 466.13958740234375
9.5, 9.548600196838379, 470.07476806640625, 466.6626892089844, 466.1280517578125
9.75, 9.798999786376953, 470.10467529296875, 466.6910095214844, 466.1563720703125
10.0, 10.045999526977539, 470.096923828125, 466.6847229003906, 466.1499938964844
10.25, 10.299200057983398, 470.1032409667969, 466.6911926269531, 466.1564636230469
10.5, 10.54800033569336, 470.0975341796875, 466.6844177246094, 466.149658203125
10.75, 10.798600196838379, 470.1134033203125, 466.7010803222656, 466.1662902832031
11.0, 11.047800064086914, 470.0892028808594, 466.6770324707031, 466.14227294921875
11.25, 11.298600196838379, 470.0781555175781, 466.66741943359375, 466.1327209472656
11.5, 11.551799774169922, 470.08587646484375, 466.67364501953125, 466.1389465332031
11.75, 11.800600051879883, 470.1316833496094, 466.7192077636719, 466.1844787597656
12.0, 12.048600196838379, 470.1076965332031, 466.69537353515625, 466.1606750488281
12.25, 12.298199653625488, 470.1290588378906, 466.716552734375, 466.181884765625
12.5, 12.548999786376953, 470.0953369140625, 466.68316650390625, 466.1485290527344
12.75, 12.797200202941895, 470.1043395996094, 466.69207763671875, 466.157470703125
13.0, 13.048800468444824, 470.16259765625, 466.7498779296875, 466.215087890625
13.25, 13.300200462341309, 470.1176452636719, 466.7052917480469, 466.1706237792969
13.5, 13.548999786376953, 470.1134033203125, 466.7010192871094, 466.1662292480469
13.75, 13.79800033569336, 470.12860107421875, 466.7160949707031, 466.18133544921875
14.0, 14.048600196838379, 470.6625061035156, 467.25579833984375, 466.71759033203125
14.25, 14.298399925231934, 470.1417236328125, 466.7373046875, 466.20037841796875
14.5, 14.548199653625488, 470.1074523925781, 466.6955261230469, 466.1622314453125
14.75, 14.79640007019043, 470.1356201171875, 466.7223815917969, 466.189453125
15.0, 15.047599792480469, 470.1338806152344, 466.72186279296875, 466.1886901855469
15.25, 15.29800033569336, 470.1597900390625, 466.74761962890625, 466.2143859863281
15.5, 15.548600196838379, 470.1096496582031, 466.6978454589844, 466.1646728515625
15.75, 15.798199653625488, 470.1508483886719, 466.7386779785156, 466.2054138183594
16.0, 16.047000885009766, 470.110595703125, 466.6986999511719, 466.1654968261719
16.25, 16.296600341796875, 470.1712951660156, 466.759033203125, 466.225830078125
16.5, 16.54640007019043, 470.1269836425781, 466.7151184082031, 466.18194580078125
16.75, 16.797199249267578, 470.1463928222656, 466.734375, 466.20111083984375
17.0, 17.051000595092773, 470.1382141113281, 466.72625732421875, 466.1930236816406
17.25, 17.29599952697754, 470.1360168457031, 466.72406005859375, 466.19085693359375
17.5, 17.548599243164062, 470.1471862792969, 466.7345886230469, 466.20159912109375
17.75, 17.798799514770508, 470.1280517578125, 466.7164611816406, 466.1824951171875
18.0, 18.048200607299805, 470.1443176269531, 466.73297119140625, 466.1993408203125
18.25, 18.296199798583984, 470.17425537109375, 466.7618713378906, 466.22918701171875
18.5, 18.547800064086914, 470.1208190917969, 466.7078552246094, 466.1752014160156
18.75, 18.797199249267578, 470.10638427734375, 466.6946105957031, 466.1613464355469
19.0, 19.048799514770508, 470.17584228515625, 466.7644348144531, 466.2307434082031
19.25, 19.2992000579834, 470.14471435546875, 466.7323303222656, 466.19921875
19.5, 19.550199508666992, 470.1268310546875, 466.7148132324219, 466.1811828613281
19.75, 19.797399520874023, 470.1622314453125, 466.750732421875, 466.2171325683594
20.0, 20.048200607299805, 470.14898681640625, 466.7368469238281, 466.2038269042969
20.25, 20.297800064086914, 470.0880126953125, 466.675048828125, 466.1408386230469
20.5, 20.54640007019043, 470.1503601074219, 466.7383117675781, 466.205078125
20.75, 20.79800033569336, 470.13043212890625, 466.718505859375, 466.185302734375
21.0, 21.048599243164062, 470.1434631347656, 466.7327880859375, 466.19952392578125
21.25, 21.2992000579834, 470.1658630371094, 466.7536315917969, 466.22039794921875
21.5, 21.546199798583984, 470.2164611816406, 466.8031311035156, 466.2698974609375
21.75, 21.796199798583984, 470.15472412109375, 466.74267578125, 466.20947265625
22.0, 22.04640007019043, 470.1726989746094, 466.76202392578125, 466.22601318359375
22.25, 22.298799514770508, 470.10064697265625, 466.6844787597656, 466.15264892578125
22.5, 22.54599952697754, 470.1514892578125, 466.7388000488281, 466.2052917480469
22.75, 22.797000885009766, 470.14715576171875, 466.7351379394531, 466.2013244628906
23.0, 23.04680061340332, 470.1341857910156, 466.7220458984375, 466.18829345703125
23.25, 23.296600341796875, 470.14892578125, 466.7366638183594, 466.20294189453125
23.5, 23.549400329589844, 470.1087341308594, 466.69677734375, 466.1631164550781
23.75, 23.795400619506836, 470.1412658691406, 466.7290954589844, 466.1953125
24.0, 24.045799255371094, 470.0941467285156, 466.6822814941406, 466.1485595703125
24.25, 24.298799514770508, 470.1376647949219, 466.7254943847656, 466.19171142578125
24.5, 24.548599243164062, 470.1305236816406, 466.7183837890625, 466.1846008300781
24.75, 24.79840087890625, 475.2831726074219, 473.8836975097656, 471.3032531738281
25.0, 25.047199249267578, 475.2872619628906, 474.5602111816406, 471.3048095703125
25.25, 25.298200607299805, 475.0339660644531, 474.468994140625, 471.0467834472656
25.5, 25.54800033569336, 474.6322326660156, 474.3614807128906, 470.6436462402344
25.75, 25.79960060119629, 474.14996337890625, 474.4359436035156, 470.1567687988281
26.0, 26.048599243164062, 473.5533142089844, 474.54193115234375, 469.5611572265625
26.25, 26.297199249267578, 472.9906921386719, 474.7633361816406, 468.9992370605469
26.5, 26.548999786376953, 472.3794250488281, 475.0168762207031, 468.3875427246094
26.75, 26.798200607299805, 471.8271179199219, 475.2725830078125, 467.8384094238281
27.0, 27.049400329589844, 471.4398498535156, 475.5600891113281, 467.4533996582031
27.25, 27.29960060119629, 471.0564270019531, 475.8002624511719, 467.06976318359375
27.5, 27.54759979248047, 470.7991027832031, 476.0187072753906, 466.8169860839844
27.75, 27.798799514770508, 470.5838623046875, 476.2125244140625, 466.5997619628906
28.0, 28.046600341796875, 470.4876708984375, 476.4012145996094, 466.5070495605469
28.25, 28.299400329589844, 470.3803405761719, 476.5108642578125, 466.4012451171875
28.5, 28.54640007019043, 470.31951904296875, 476.5845031738281, 466.33929443359375
28.75, 28.797399520874023, 470.29840087890625, 476.64068603515625, 466.322265625
29.0, 29.051799774169922, 470.37493896484375, 476.75396728515625, 466.3949890136719
29.25, 29.297399520874023, 470.368896484375, 476.7344970703125, 466.39202880859375
29.5, 29.54960060119629, 470.4527587890625, 476.788330078125, 466.4750061035156
29.75, 29.796600341796875, 470.4771423339844, 476.7633972167969, 466.4998474121094
30.0, 30.047399520874023, 470.52496337890625, 476.7554626464844, 466.54779052734375
30.25, 30.297000885009766, 470.8048400878906, 477.1860046386719, 466.8239440917969
30.5, 30.54599952697754, 470.7943115234375, 477.5066833496094, 466.8189392089844
30.75, 30.797800064086914, 470.9068603515625, 477.76080322265625, 466.9354248046875
31.0, 31.047399520874023, 471.1166687011719, 477.8448181152344, 467.14752197265625
31.25, 31.298599243164062, 471.3488464355469, 477.7772521972656, 467.3814392089844
31.5, 31.54599952697754, 471.648681640625, 477.6482849121094, 467.68170166015625
31.75, 31.796199798583984, 471.9024963378906, 477.4583435058594, 467.9359436035156
32.0, 32.04819869995117, 472.1584777832031, 477.244384765625, 468.1913757324219
32.25, 32.29859924316406, 472.4584045410156, 477.1319885253906, 468.4902648925781
32.5, 32.546600341796875, 472.6314697265625, 476.9149475097656, 468.6628723144531
32.75, 32.797000885009766, 472.83935546875, 476.8081970214844, 468.86962890625
33.0, 33.04840087890625, 472.86669921875, 476.5557556152344, 468.8963623046875
33.25, 33.29600143432617, 473.0650329589844, 476.5506591796875, 469.0937194824219
33.5, 33.54899978637695, 473.149169921875, 476.4736633300781, 469.17742919921875
33.75, 33.79679870605469, 473.21148681640625, 476.4253845214844, 469.2386474609375
34.0, 34.046600341796875, 473.2109375, 476.3493957519531, 469.2378234863281
34.25, 34.29819869995117, 473.254638671875, 476.35015869140625, 469.27972412109375
34.5, 34.549400329589844, 473.2353210449219, 476.31939697265625, 469.26129150390625
34.75, 34.80820083618164, 473.2128601074219, 476.3039245605469, 469.2386169433594
35.0, 35.04899978637695, 473.20953369140625, 476.32025146484375, 469.2350158691406
35.25, 35.29679870605469, 473.1941223144531, 476.3373107910156, 469.2196044921875
35.5, 35.546600341796875, 473.1570129394531, 476.3316955566406, 469.1825256347656
35.75, 35.7953987121582, 473.1599426269531, 476.3731689453125, 469.1852722167969
36.0, 36.04840087890625, 473.1235046386719, 476.3700866699219, 469.1488952636719
36.25, 36.29600143432617, 473.12261962890625, 476.4040832519531, 469.14788818359375
36.5, 36.54600143432617, 473.0933532714844, 476.40240478515625, 469.11895751953125
36.75, 36.7953987121582, 473.0860595703125, 476.4216613769531, 469.11163330078125
37.0, 37.049400329589844, 473.05987548828125, 476.416015625, 469.0856628417969
37.25, 37.29899978637695, 473.0617370605469, 476.43365478515625, 469.08740234375
37.5, 37.5526008605957, 473.0614013671875, 476.4461669921875, 469.08685302734375
37.75, 37.79600143432617, 473.0442810058594, 476.43658447265625, 469.07025146484375
38.0, 38.04759979248047, 473.02105712890625, 476.4189758300781, 469.0475769042969
38.25, 38.29679870605469, 473.12591552734375, 476.6065368652344, 469.1497802734375
38.5, 38.549598693847656, 473.0203552246094, 476.8109130859375, 469.0493469238281
38.75, 38.7953987121582, 472.9877624511719, 476.9521484375, 469.01959228515625
39.0, 39.04999923706055, 473.015625, 476.9653625488281, 469.0501708984375
39.25, 39.297000885009766, 473.145751953125, 476.9306640625, 469.1821594238281
39.5, 39.546199798583984, 473.29168701171875, 476.8034973144531, 469.32861328125
39.75, 39.79759979248047, 473.4482116699219, 476.66168212890625, 469.4851379394531
40.0, 40.04859924316406, 473.6039123535156, 476.48284912109375, 469.6418151855469
40.25, 40.29600143432617, 473.758544921875, 476.34149169921875, 469.7952880859375
40.5, 40.549198150634766, 473.8940124511719, 476.18658447265625, 469.9306640625
40.75, 40.7953987121582, 474.03717041015625, 476.0933837890625, 470.0732421875
41.0, 41.047000885009766, 474.11932373046875, 475.965087890625, 470.15472412109375
41.25, 41.29600143432617, 474.216796875, 475.9019775390625, 470.2518310546875
41.5, 41.54800033569336, 474.2847595214844, 475.83740234375, 470.31951904296875
41.75, 41.795799255371094, 474.31719970703125, 475.7741394042969, 470.3510437011719
42.0, 42.04859924316406, 474.3308410644531, 475.7279052734375, 470.36444091796875
42.25, 42.29779815673828, 474.4025573730469, 475.760009765625, 470.4359130859375
42.5, 42.545799255371094, 474.32049560546875, 475.662109375, 470.3536682128906
42.75, 42.796600341796875, 474.39654541015625, 475.7361145019531, 470.42889404296875
43.0, 43.04840087890625, 474.3592529296875, 475.7083740234375, 470.3922119140625
43.25, 43.29800033569336, 474.31494140625, 475.6817321777344, 470.3475036621094
43.5, 43.54719924926758, 474.3659973144531, 475.75537109375, 470.3984069824219
43.75, 43.799598693847656, 474.3720397949219, 475.78411865234375, 470.4046630859375
44.0, 44.05039978027344, 474.2986755371094, 475.7386474609375, 470.3311767578125
44.25, 44.297401428222656, 474.3377685546875, 475.7984313964844, 470.36968994140625
44.5, 44.546199798583984, 474.311279296875, 475.793212890625, 470.3437805175781
44.75, 44.79999923706055, 474.26397705078125, 475.76416015625, 470.2961730957031
45.0, 45.04859924316406, 474.3082275390625, 475.8256530761719, 470.340087890625
45.25, 45.29859924316406, 474.2793273925781, 475.80694580078125, 470.31201171875
45.5, 45.55160140991211, 474.2388610839844, 475.775146484375, 470.2714538574219
45.75, 45.79899978637695, 474.2986145019531, 475.84234619140625, 470.3307800292969
46.0, 46.04899978637695, 474.27276611328125, 475.8192138671875, 470.30572509765625
46.25, 46.29679870605469, 474.2417297363281, 475.81939697265625, 470.27178955078125
46.5, 46.54779815673828, 474.0871887207031, 475.910888671875, 470.1207580566406
46.75, 46.79899978637695, 474.0050048828125, 476.0038757324219, 470.04150390625
47.0, 47.049400329589844, 473.99847412109375, 476.024658203125, 470.0377502441406
47.25, 47.29859924316406, 474.08203125, 476.00518798828125, 470.1228942871094
47.5, 47.54840087890625, 474.2047424316406, 475.9271240234375, 470.24603271484375
47.75, 47.7963981628418, 474.2477722167969, 475.7407531738281, 470.29180908203125
48.0, 48.04679870605469, 474.3726501464844, 475.59967041015625, 470.4148864746094
48.25, 48.2963981628418, 474.5162353515625, 475.5059814453125, 470.55926513671875
48.5, 48.54800033569336, 474.6216125488281, 475.3739929199219, 470.664306640625
48.75, 48.79520034790039, 474.71484375, 475.2738342285156, 470.7569580078125
49.0, 49.04819869995117, 474.8136291503906, 475.1943664550781, 470.8553771972656
49.25, 49.29880142211914, 474.8570556640625, 475.09710693359375, 470.8984069824219
49.5, 49.54880142211914, 474.9066162109375, 475.04364013671875, 470.9476013183594
49.75, 49.79719924926758, 474.9610595703125, 475.01580810546875, 471.0014343261719
50.0, 50.046199798583984, 475.0066223144531, 475.0085754394531, 471.046630859375
50.25, 50.29600143432617, 474.98468017578125, 474.9511413574219, 471.02459716796875
50.5, 50.54759979248047, 475.020263671875, 474.9710998535156, 471.0596923828125
50.75, 50.79719924926758, 475.0035400390625, 474.95037841796875, 471.0429382324219
51.0, 51.05120086669922, 474.9945373535156, 474.9476013183594, 471.0337829589844
51.25, 51.296600341796875, 475.05108642578125, 475.0145568847656, 471.08984375
51.5, 51.54819869995117, 474.9906921386719, 474.97515869140625, 471.0311584472656
51.75, 51.79520034790039, 475.00347900390625, 475.0043640136719, 471.0423278808594
52.0, 52.046199798583984, 475.0079040527344, 475.02886962890625, 471.04693603515625
52.25, 52.29779815673828, 474.9491882324219, 474.9881591796875, 470.9883117675781
52.5, 52.54819869995117, 474.9292907714844, 474.98590087890625, 470.9688415527344
52.75, 52.79499816894531, 474.95233154296875, 475.0240478515625, 470.99139404296875
53.0, 53.04719924926758, 474.9596862792969, 475.04400634765625, 470.9986572265625
53.25, 53.297000885009766, 474.9578552246094, 475.0491027832031, 470.996826171875
53.5, 53.54679870605469, 474.9680480957031, 475.06964111328125, 471.0070495605469
53.75, 53.797000885009766, 474.9695739746094, 475.07568359375, 471.00836181640625
54.0, 54.04759979248047, 474.8921203613281, 475.00213623046875, 470.93145751953125
54.25, 54.29600143432617, 474.8316955566406, 474.9459228515625, 470.8720397949219
54.5, 54.54719924926758, 474.77001953125, 475.0552062988281, 470.810791015625
54.75, 54.797000885009766, 474.6720886230469, 475.1265563964844, 470.7157897949219
55.0, 55.0463981628418, 474.6117858886719, 475.1183776855469, 470.65777587890625
55.25, 55.29520034790039, 474.68524169921875, 475.1307067871094, 470.7322998046875
55.5, 55.54800033569336, 474.6799011230469, 474.9743957519531, 470.728759765625
55.75, 55.79600143432617, 474.7847900390625, 474.8835754394531, 470.8338928222656
56.0, 56.04600143432617, 474.81805419921875, 474.7171630859375, 470.8685302734375
56.25, 56.296600341796875, 474.9288330078125, 474.6152648925781, 470.978515625
56.5, 56.54800033569336, 475.0106201171875, 474.5137634277344, 471.06011962890625
56.75, 56.79899978637695, 475.084228515625, 474.4129638671875, 471.1333312988281
57.0, 57.04779815673828, 475.1418762207031, 474.3302001953125, 471.1907653808594
57.25, 57.297401428222656, 475.23126220703125, 474.2976379394531, 471.2793884277344
57.5, 57.547000885009766, 475.21356201171875, 474.1889343261719, 471.2618713378906
57.75, 57.79800033569336, 475.2629089355469, 474.169189453125, 471.31072998046875
58.0, 58.04600143432617, 475.2986145019531, 474.1543884277344, 471.3460693359375
58.25, 58.29779815673828, 475.3174133300781, 474.14111328125, 471.3642272949219
58.5, 58.54759979248047, 475.34521484375, 474.1527099609375, 471.39202880859375
58.75, 58.797401428222656, 475.35723876953125, 474.1571044921875, 471.4036560058594
59.0, 59.047401428222656, 475.3708801269531, 474.1756286621094, 471.41729736328125
59.25, 59.29600143432617, 475.3149719238281, 474.1283874511719, 471.3616943359375
59.5, 59.55979919433594, 475.3559265136719, 474.1842346191406, 471.4021301269531
59.75, 59.799800872802734, 475.3440246582031, 474.1861572265625, 471.3902587890625
60.0, 60.04759979248047, 475.2850036621094, 474.1455993652344, 471.3316955566406
