Time, Timer, measurement1.Three-phase Meter1.VLn_RMS, measurement2.Three-phase Meter2.VLn_RMS, measurement3.Three-phase Meter3.VLn_RMS
0.25, 0.25859999656677246, 469.38995361328125, 465.79278564453125, 465.36553955078125
0.5, 0.515999972820282, 469.7051086425781, 466.10791015625, 465.6807861328125
0.75, 0.7634000182151794, 469.73321533203125, 466.1429443359375, 465.7156677246094
1.0, 1.0161999464035034, 470.9438781738281, 467.34271240234375, 466.91607666015625
1.25, 1.2657999992370605, 470.6728210449219, 467.0705261230469, 466.6440734863281
1.5, 1.5288000106811523, 470.6144104003906, 467.01751708984375, 466.59033203125
1.75, 1.764799952507019, 470.8669128417969, 467.2911376953125, 466.83331298828125
2.0, 2.0139999389648438, 471.23272705078125, 467.7626647949219, 467.24945068359375
2.25, 2.26419997215271, 470.9117736816406, 467.4704895019531, 466.945068359375
2.5, 2.5165998935699463, 470.93072509765625, 467.50653076171875, 466.97412109375
2.75, 2.7604000568389893, 470.89324951171875, 467.4593200683594, 466.92572021484375
3.0, 3.0167999267578125, 470.9482421875, 467.5235290527344, 466.9888610839844
3.25, 3.2627999782562256, 470.87646484375, 467.44512939453125, 466.9102783203125
3.5, 3.509399890899658, 470.94854736328125, 467.531005859375, 466.99566650390625
3.75, 3.765000104904175, 471.03558349609375, 467.6121520996094, 467.07666015625
4.0, 4.0096001625061035, 470.8960876464844, 467.4734191894531, 466.93804931640625
4.25, 4.262800216674805, 470.9435729980469, 467.52178955078125, 466.98614501953125
4.5, 4.508800029754639, 470.9610595703125, 467.5264587402344, 466.9908447265625
4.75, 4.760000228881836, 470.991455078125, 467.572265625, 467.0366516113281
5.0, 5.014400005340576, 470.89776611328125, 467.48626708984375, 466.95068359375
5.25, 5.26639986038208, 471.00067138671875, 467.57659912109375, 467.04095458984375
5.5, 5.508399963378906, 470.9305725097656, 467.5074157714844, 466.9718017578125
5.75, 5.765200138092041, 470.9954833984375, 467.5768737792969, 467.0413818359375
6.0, 6.013800144195557, 470.979736328125, 467.56427001953125, 467.02874755859375
6.25, 6.257400035858154, 470.97772216796875, 467.5583190917969, 467.0229187011719
6.5, 6.507800102233887, 470.91937255859375, 467.5002136230469, 466.9647521972656
6.75, 6.757999897003174, 470.9680480957031, 467.547607421875, 467.0121765136719
7.0, 7.018599987030029, 470.9361877441406, 467.51568603515625, 466.980224609375
7.25, 7.264400005340576, 471.0003662109375, 467.5839538574219, 467.04827880859375
7.5, 7.51639986038208, 471.0006408691406, 467.58843994140625, 467.0528564453125
7.75, 7.775000095367432, 470.9424133300781, 467.526611328125, 466.990966796875
8.0, 8.028599739074707, 471.00823974609375, 467.5867919921875, 467.0510559082031
8.25, 8.276399612426758, 470.95611572265625, 467.53778076171875, 467.0020751953125
8.5, 8.539600372314453, 470.9873046875, 467.5736999511719, 467.0379943847656
8.75, 8.788599967956543, 471.0842590332031, 467.6765441894531, 467.14056396484375
9.0, 9.048999786376953, 471.01922607421875, 467.5984191894531, 467.0627136230469
9.25, 9.288200378417969, 470.9908752441406, 467.5780029296875, 467.04229736328125
9.5, 9.544599533081055, 470.9980773925781, 467.582763671875, 467.04718017578125
9.75, 9.79699993133545, 470.98541259765625, 467.5602722167969, 467.0245666503906
10.0, 10.049599647521973, 470.9759521484375, 467.56658935546875, 467.031005859375
10.25, 10.289199829101562, 470.9831848144531, 467.5667724609375, 467.0312194824219
10.5, 10.548399925231934, 470.9952697753906, 467.579833984375, 467.0442810058594
10.75, 10.796600341796875, 470.9870910644531, 467.5796813964844, 467.0440673828125
11.0, 11.048199653625488, 471.0959777832031, 467.6817626953125, 467.14617919921875
11.25, 11.289400100708008, 471.0086669921875, 467.5960998535156, 467.06036376953125
11.5, 11.540399551391602, 471.0449523925781, 467.6299743652344, 467.0941467285156
11.75, 11.791199684143066, 471.0183410644531, 467.60589599609375, 467.070068359375
12.0, 12.041600227355957, 471.0010681152344, 467.5876159667969, 467.0517883300781
12.25, 12.290800094604492, 470.9856872558594, 467.5825500488281, 467.0467224121094
12.5, 12.54259967803955, 471.01416015625, 467.6084289550781, 467.0726623535156
12.75, 12.788200378417969, 470.9884033203125, 467.58367919921875, 467.0479736328125
13.0, 13.041399955749512, 471.03594970703125, 467.6186218261719, 467.0828552246094
13.25, 13.291600227355957, 471.0753479003906, 467.6593322753906, 467.1235656738281
13.5, 13.538399696350098, 470.9967346191406, 467.58660888671875, 467.051025390625
13.75, 13.790599822998047, 471.0462646484375, 467.6333923339844, 467.09771728515625
14.0, 14.041799545288086, 471.007080078125, 467.5950622558594, 467.0594482421875
14.25, 14.289999961853027, 471.02825927734375, 467.6126403808594, 467.0769958496094
14.5, 14.540800094604492, 471.02325439453125, 467.60406494140625, 467.068359375
14.75, 14.789400100708008, 471.01190185546875, 467.5940246582031, 467.05828857421875
15.0, 15.04259967803955, 471.0583190917969, 467.64556884765625, 467.10980224609375
15.25, 15.289799690246582, 471.0052490234375, 467.5841369628906, 467.0484924316406
15.5, 15.538599967956543, 471.0830078125, 467.65716552734375, 467.1213073730469
15.75, 15.788399696350098, 471.0534973144531, 467.6295471191406, 467.09375
16.0, 16.043399810791016, 471.0506591796875, 467.6225891113281, 467.0868225097656
16.25, 16.288000106811523, 471.09405517578125, 467.6672668457031, 467.1315002441406
16.5, 16.540000915527344, 470.9786682128906, 467.5565490722656, 467.0208435058594
16.75, 16.7898006439209, 471.0225524902344, 467.60198974609375, 467.0663146972656
17.0, 17.041799545288086, 471.0484619140625, 467.62823486328125, 467.0924987792969
17.25, 17.290599822998047, 471.0343933105469, 467.61639404296875, 467.08074951171875
17.5, 17.5403995513916, 471.04327392578125, 467.627685546875, 467.092041015625
17.75, 17.791200637817383, 471.1094665527344, 467.6972961425781, 467.16162109375
18.0, 18.043399810791016, 471.05255126953125, 467.6283264160156, 467.0926818847656
18.25, 18.288799285888672, 471.0255126953125, 467.60748291015625, 467.0717468261719
18.5, 18.540599822998047, 470.99114990234375, 467.5713806152344, 467.0356750488281
18.75, 18.790599822998047, 471.0425720214844, 467.6228942871094, 467.0870666503906
19.0, 19.0398006439209, 470.98590087890625, 467.568115234375, 467.0323181152344
19.25, 19.290199279785156, 471.0628356933594, 467.63580322265625, 467.0999450683594
19.5, 19.541000366210938, 471.03961181640625, 467.618408203125, 467.0825500488281
19.75, 19.791000366210938, 471.0277099609375, 467.6059875488281, 467.0701904296875
20.0, 20.042600631713867, 471.0129089355469, 467.5929870605469, 467.05718994140625
20.25, 20.288999557495117, 471.01031494140625, 467.59307861328125, 467.05743408203125
20.5, 20.539600372314453, 471.05975341796875, 467.6372375488281, 467.1015319824219
20.75, 20.7903995513916, 471.0075988769531, 467.5831298828125, 467.0475158691406
21.0, 21.042600631713867, 471.0006408691406, 467.5769348144531, 467.0412902832031
21.25, 21.291000366210938, 471.07257080078125, 467.6515197753906, 467.11590576171875
21.5, 21.54159927368164, 471.0476989746094, 467.6195983886719, 467.0838928222656
21.75, 21.788799285888672, 471.0307922363281, 467.602783203125, 467.0670471191406
22.0, 22.040199279785156, 471.0143737792969, 467.58929443359375, 467.05352783203125
22.25, 22.29199981689453, 471.0050048828125, 467.5854797363281, 467.0497741699219
22.5, 22.539199829101562, 471.0423889160156, 467.6191711425781, 467.08331298828125
22.75, 22.791200637817383, 470.9721374511719, 467.54547119140625, 467.00958251953125
23.0, 23.040199279785156, 471.06451416015625, 467.6423645019531, 467.1065368652344
23.25, 23.2898006439209, 471.0285339355469, 467.6037292480469, 467.0679626464844
23.5, 23.53860092163086, 471.0029296875, 467.58404541015625, 467.04833984375
23.75, 23.790599822998047, 471.0578918457031, 467.64678955078125, 467.11102294921875
24.0, 24.042600631713867, 470.9927062988281, 467.5692138671875, 467.0343933105469
24.25, 24.28860092163086, 471.04656982421875, 467.6216125488281, 467.08587646484375
24.5, 24.539400100708008, 471.0289611816406, 467.6078186035156, 467.0722351074219
24.75, 24.79159927368164, 471.0511779785156, 467.62884521484375, 467.0931701660156
25.0, 25.041200637817383, 471.0450439453125, 467.62896728515625, 467.0933532714844
25.25, 25.288999557495117, 471.0287170410156, 467.6077880859375, 467.0721435546875
25.5, 25.5398006439209, 471.0012512207031, 467.5795593261719, 467.04376220703125
25.75, 25.788799285888672, 471.0727844238281, 467.65765380859375, 467.12200927734375
26.0, 26.042400360107422, 475.49725341796875, 474.5894470214844, 471.5174255371094
26.25, 26.289400100708008, 474.9824523925781, 475.09600830078125, 471.01226806640625
26.5, 26.541000366210938, 474.818115234375, 475.2945556640625, 470.85296630859375
26.75, 26.789600372314453, 475.0015563964844, 475.54083251953125, 471.0296630859375
27.0, 27.04400062561035, 474.9718933105469, 475.5675048828125, 471.0121765136719
27.25, 27.289600372314453, 474.86181640625, 475.4452209472656, 470.8861083984375
27.5, 27.541400909423828, 475.1294860839844, 475.8218078613281, 471.1634826660156
27.75, 27.790599822998047, 475.1341552734375, 475.8838195800781, 471.1689453125
28.0, 28.044200897216797, 475.1214904785156, 475.9181213378906, 471.1544189453125
28.25, 28.290800094604492, 475.0892639160156, 475.91717529296875, 471.12322998046875
28.5, 28.541799545288086, 474.99957275390625, 475.84576416015625, 471.0328369140625
28.75, 28.790599822998047, 475.0668640136719, 475.9244384765625, 471.10028076171875
29.0, 29.041400909423828, 475.03106689453125, 475.8902282714844, 471.0622253417969
29.25, 29.289199829101562, 475.013916015625, 475.8692626953125, 471.0439453125
29.5, 29.540000915527344, 474.8917541503906, 475.7553405761719, 470.9309997558594
29.75, 29.790800094604492, 475.043701171875, 475.918212890625, 471.077392578125
30.0, 30.04199981689453, 475.055908203125, 475.934326171875, 471.0934753417969
30.25, 30.28860092163086, 475.03485107421875, 475.9090270996094, 471.0655822753906
30.5, 30.539400100708008, 475.0224609375, 475.898193359375, 471.0596618652344
30.75, 30.790199279785156, 475.0250244140625, 475.8963317871094, 471.0625305175781
31.0, 31.041000366210938, 475.0025634765625, 475.8600158691406, 471.03759765625
31.25, 31.288799285888672, 475.09063720703125, 475.9476013183594, 471.12518310546875
31.5, 31.53860092163086, 475.0802917480469, 475.9425354003906, 471.1148681640625
31.75, 31.789600372314453, 475.12933349609375, 476.0039367675781, 471.169677734375
32.0, 32.04100036621094, 475.0561218261719, 475.9244079589844, 471.0910949707031
32.25, 32.29180145263672, 475.0776062011719, 475.9452209472656, 471.11126708984375
32.5, 32.53900146484375, 475.0572204589844, 475.91058349609375, 471.0869445800781
32.75, 32.78960037231445, 475.04071044921875, 475.8905334472656, 471.0748596191406
33.0, 33.04499816894531, 475.05364990234375, 475.9049377441406, 471.08746337890625
33.25, 33.289398193359375, 475.093994140625, 475.944091796875, 471.12322998046875
33.5, 33.540401458740234, 475.08209228515625, 475.94189453125, 471.1148376464844
33.75, 33.78839874267578, 475.0482482910156, 475.907958984375, 471.0794372558594
34.0, 34.042598724365234, 475.152587890625, 476.02398681640625, 471.19219970703125
34.25, 34.29079818725586, 475.0173645019531, 475.87188720703125, 471.0538024902344
34.5, 34.53900146484375, 475.00994873046875, 475.857421875, 471.0466003417969
34.75, 34.78860092163086, 475.095703125, 475.943603515625, 471.1284484863281
35.0, 35.040401458740234, 475.06982421875, 475.923583984375, 471.10858154296875
35.25, 35.28860092163086, 475.0815734863281, 475.9371032714844, 471.11224365234375
35.5, 35.539398193359375, 475.0603942871094, 475.9230041503906, 471.0956115722656
35.75, 35.78879928588867, 475.06427001953125, 475.9307861328125, 471.103515625
36.0, 36.04059982299805, 475.0798645019531, 475.9263000488281, 471.10986328125
36.25, 36.28860092163086, 475.1549987792969, 475.9984130859375, 471.1833801269531
36.5, 36.54159927368164, 475.0809326171875, 475.9283142089844, 471.1148986816406
36.75, 36.79119873046875, 475.0502014160156, 475.8930358886719, 471.07916259765625
37.0, 37.040401458740234, 475.1061096191406, 475.9600830078125, 471.1375732421875
37.25, 37.289798736572266, 475.08447265625, 475.9351806640625, 471.1067199707031
37.5, 37.54240036010742, 475.0578308105469, 475.8991394042969, 471.076416015625
37.75, 37.789398193359375, 475.0566711425781, 475.90057373046875, 471.0851745605469
38.0, 38.04159927368164, 475.0702209472656, 475.9145812988281, 471.1003723144531
38.25, 38.290401458740234, 475.05963134765625, 475.90191650390625, 471.0897216796875
38.5, 38.542198181152344, 475.1591796875, 476.00372314453125, 471.1883239746094
38.75, 38.78860092163086, 475.09075927734375, 475.9502868652344, 471.1264343261719
39.0, 39.04140090942383, 475.06683349609375, 475.92523193359375, 471.0954895019531
39.25, 39.290401458740234, 475.0681457519531, 475.9175109863281, 471.0965881347656
39.5, 39.53860092163086, 475.05499267578125, 475.8985900878906, 471.0828857421875
39.75, 39.78900146484375, 475.0766296386719, 475.91290283203125, 471.1002502441406
40.0, 40.04140090942383, 475.0518493652344, 475.8871154785156, 471.0771789550781
40.25, 40.289798736572266, 475.1024169921875, 475.9444580078125, 471.1285095214844
40.5, 40.54079818725586, 475.0451965332031, 475.9018249511719, 471.0784606933594
40.75, 40.78839874267578, 475.13690185546875, 475.9921875, 471.1644287109375
41.0, 41.04059982299805, 475.0693664550781, 475.9180603027344, 471.0992431640625
41.25, 41.28799819946289, 475.0909729003906, 475.9366760253906, 471.12115478515625
41.5, 41.53919982910156, 475.05126953125, 475.8832702636719, 471.0732116699219
41.75, 41.78860092163086, 475.0679016113281, 475.9075622558594, 471.0987243652344
42.0, 42.04100036621094, 475.06170654296875, 475.90960693359375, 471.0934753417969
42.25, 42.28960037231445, 475.133056640625, 475.98101806640625, 471.15728759765625
42.5, 42.54100036621094, 475.0447998046875, 475.8984680175781, 471.0765075683594
42.75, 42.790000915527344, 475.0801696777344, 475.92803955078125, 471.10821533203125
43.0, 43.04280090332031, 475.0747985839844, 475.924560546875, 471.1095275878906
43.25, 43.28860092163086, 475.03985595703125, 475.8773498535156, 471.0672912597656
43.5, 43.539398193359375, 475.0662841796875, 475.9054870605469, 471.0994567871094
43.75, 43.790401458740234, 475.0335998535156, 475.88116455078125, 471.0663757324219
44.0, 44.0432014465332, 475.0942687988281, 475.9446105957031, 471.1227111816406
44.25, 44.28900146484375, 475.0342712402344, 475.8934326171875, 471.0680847167969
44.5, 44.540199279785156, 475.07562255859375, 475.9293212890625, 471.10791015625
44.75, 44.787601470947266, 475.060302734375, 475.9046325683594, 471.085205078125
45.0, 45.04240036010742, 475.0744934082031, 475.9112854003906, 471.1035461425781
45.25, 45.29059982299805, 475.07244873046875, 475.90277099609375, 471.0950012207031
45.5, 45.54119873046875, 475.09698486328125, 475.9430847167969, 471.1274108886719
45.75, 45.79159927368164, 475.0872802734375, 475.9349365234375, 471.11334228515625
46.0, 46.043800354003906, 475.0712585449219, 475.9176940917969, 471.0960693359375
46.25, 46.29059982299805, 475.07330322265625, 475.92919921875, 471.1051330566406
46.5, 46.54140090942383, 475.008056640625, 475.8488464355469, 471.0356750488281
46.75, 46.790199279785156, 475.0474853515625, 475.8812255859375, 471.0743408203125
47.0, 47.042999267578125, 475.0882873535156, 475.926513671875, 471.1163024902344
47.25, 47.289798736572266, 475.0677795410156, 475.91864013671875, 471.10357666015625
47.5, 47.54180145263672, 478.1212158203125, 478.56341552734375, 475.1208190917969
47.75, 47.78960037231445, 477.1685791015625, 477.0496826171875, 475.98681640625
48.0, 48.039798736572266, 476.78948974609375, 476.6468811035156, 476.23175048828125
48.25, 48.290000915527344, 476.83551025390625, 476.7474670410156, 476.3791198730469
48.5, 48.540000915527344, 476.8395690917969, 476.7811279296875, 476.35198974609375
48.75, 48.78779983520508, 476.62713623046875, 476.510498046875, 476.31365966796875
49.0, 49.042999267578125, 476.5543212890625, 476.4139099121094, 476.3792724609375
49.25, 49.290401458740234, 476.5986022949219, 476.47198486328125, 476.49151611328125
49.5, 49.54140090942383, 476.5648498535156, 476.4629211425781, 476.4885559082031
49.75, 49.78919982910156, 476.4266052246094, 476.33544921875, 476.37945556640625
50.0, 50.04119873046875, 476.4767150878906, 476.39361572265625, 476.46124267578125
50.25, 50.290000915527344, 476.45263671875, 476.3764343261719, 476.46142578125
50.5, 50.54079818725586, 476.4877014160156, 476.4277038574219, 476.5103454589844
50.75, 50.790401458740234, 476.4508056640625, 476.3979797363281, 476.4792785644531
51.0, 51.04180145263672, 476.48193359375, 476.43328857421875, 476.5146789550781
51.25, 51.290199279785156, 476.5052185058594, 476.4703063964844, 476.5556335449219
51.5, 51.54119873046875, 476.4245910644531, 476.3842468261719, 476.46417236328125
51.75, 51.789798736572266, 476.4567565917969, 476.423095703125, 476.5054016113281
52.0, 52.04199981689453, 476.44146728515625, 476.4132995605469, 476.4925537109375
52.25, 52.28839874267578, 476.4637451171875, 476.43597412109375, 476.51580810546875
52.5, 52.54059982299805, 476.3381652832031, 476.31158447265625, 476.38922119140625
52.75, 52.78900146484375, 476.5042419433594, 476.4870300292969, 476.56060791015625
53.0, 53.04119873046875, 476.4555358886719, 476.44091796875, 476.5157775878906
53.25, 53.29100036621094, 476.4823303222656, 476.4670104980469, 476.53729248046875
53.5, 53.539798736572266, 476.4264831542969, 476.4093322753906, 476.48284912109375
53.75, 53.790401458740234, 476.4066162109375, 476.40301513671875, 476.47393798828125
54.0, 54.04439926147461, 476.426025390625, 476.4191589355469, 476.4856872558594
54.25, 54.290199279785156, 476.50823974609375, 476.50958251953125, 476.5761413574219
54.5, 54.54180145263672, 476.4774169921875, 476.4714660644531, 476.5425720214844
54.75, 54.78839874267578, 476.41802978515625, 476.4134826660156, 476.483154296875
55.0, 55.040199279785156, 476.4436340332031, 476.44049072265625, 476.5076904296875
55.25, 55.28839874267578, 476.4250793457031, 476.4276123046875, 476.493896484375
55.5, 55.539798736572266, 476.4550476074219, 476.4564208984375, 476.5231628417969
55.75, 55.78919982910156, 476.4207763671875, 476.4124450683594, 476.47857666015625
56.0, 56.04059982299805, 476.4178771972656, 476.414794921875, 476.4788818359375
56.25, 56.28879928588867, 476.43145751953125, 476.4260559082031, 476.49371337890625
56.5, 56.539798736572266, 476.4562072753906, 476.4583740234375, 476.5176086425781
56.75, 56.790401458740234, 476.4964599609375, 476.49310302734375, 476.55810546875
57.0, 57.04199981689453, 476.5180969238281, 476.51416015625, 476.57379150390625
57.25, 57.29119873046875, 476.43035888671875, 476.42266845703125, 476.48638916015625
57.5, 57.54079818725586, 476.47332763671875, 476.47259521484375, 476.5331115722656
57.75, 57.79159927368164, 476.45355224609375, 476.45458984375, 476.5180969238281
58.0, 58.03919982910156, 476.4493408203125, 476.4491882324219, 476.5093078613281
58.25, 58.290401458740234, 476.4346008300781, 476.4369201660156, 476.50054931640625
58.5, 58.54159927368164, 476.4555358886719, 476.45794677734375, 476.51593017578125
58.75, 58.78820037841797, 476.46002197265625, 476.46038818359375, 476.51947021484375
59.0, 59.040199279785156, 476.4204406738281, 476.4278869628906, 476.4850158691406
59.25, 59.287601470947266, 476.46630859375, 476.462890625, 476.5268859863281
59.5, 59.540199279785156, 476.455078125, 476.45654296875, 476.51837158203125
59.75, 59.790401458740234, 476.4827575683594, 476.4806213378906, 476.5395812988281
