Time, Timer, measurement1.Three-phase Meter1.VLn_RMS, measurement2.Three-phase Meter2.VLn_RMS, measurement3.Three-phase Meter3.VLn_RMS
0.25, 0.3025999963283539, 470.3077697753906, 466.7152404785156, 466.2874755859375
0.5, 0.5529999732971191, 469.6951599121094, 466.10833740234375, 465.6811218261719
0.75, 0.8040000200271606, 469.7025451660156, 466.114013671875, 465.6867980957031
1.0, 1.0582000017166138, 469.7064208984375, 466.1207275390625, 465.6935119628906
1.25, 1.3015999794006348, 469.73297119140625, 466.14453125, 465.7173156738281
1.5, 1.561400055885315, 469.7408447265625, 466.152587890625, 465.7254333496094
1.75, 1.806399941444397, 470.5641784667969, 467.0306396484375, 466.56097412109375
2.0, 2.0666000843048096, 470.2256774902344, 466.7790222167969, 466.2618103027344
2.25, 2.327399969100952, 470.0647277832031, 466.6406555175781, 466.113525390625
2.5, 2.5797998905181885, 470.0011291503906, 466.5863037109375, 466.0542907714844
2.75, 2.819200038909912, 470.00848388671875, 466.59490966796875, 466.0611267089844
3.0, 3.06820011138916, 470.0013732910156, 466.5893859863281, 466.0550537109375
3.25, 3.330399990081787, 470.02056884765625, 466.6061706542969, 466.07177734375
3.5, 3.579200029373169, 470.0038757324219, 466.59210205078125, 466.0575866699219
3.75, 3.821199893951416, 470.0246887207031, 466.6109619140625, 466.07635498046875
4.0, 4.083199977874756, 470.01739501953125, 466.6051025390625, 466.0704650878906
4.25, 4.333000183105469, 470.02471923828125, 466.60968017578125, 466.0750732421875
4.5, 4.5879998207092285, 470.0450134277344, 466.630126953125, 466.095458984375
4.75, 4.8358001708984375, 470.0362854003906, 466.62384033203125, 466.0892333984375
5.0, 5.089799880981445, 470.0139465332031, 466.6028747558594, 466.0682678222656
5.25, 5.332600116729736, 470.04364013671875, 466.6311340332031, 466.09661865234375
5.5, 5.585999965667725, 470.04150390625, 466.63037109375, 466.0958557128906
5.75, 5.8429999351501465, 470.0444030761719, 466.6307373046875, 466.0962829589844
6.0, 6.091000080108643, 470.0343933105469, 466.62152099609375, 466.08697509765625
6.25, 6.334000110626221, 470.0365905761719, 466.62371826171875, 466.0892333984375
6.5, 6.588799953460693, 470.0423889160156, 466.6313171386719, 466.0968322753906
6.75, 6.8379998207092285, 470.0736083984375, 466.6621398925781, 466.12762451171875
7.0, 7.091800212860107, 470.0479736328125, 466.6354064941406, 466.100830078125
7.25, 7.340199947357178, 470.068115234375, 466.6565856933594, 466.1220397949219
7.5, 7.584400177001953, 470.0615539550781, 466.64813232421875, 466.1134948730469
7.75, 7.833399772644043, 470.08721923828125, 466.6743469238281, 466.13970947265625
8.0, 8.083600044250488, 470.0908508300781, 466.6783142089844, 466.1436767578125
8.25, 8.34160041809082, 470.09161376953125, 466.6784362792969, 466.14385986328125
8.5, 8.585800170898438, 470.09808349609375, 466.6849060058594, 466.1502990722656
8.75, 8.840399742126465, 470.0838623046875, 466.671142578125, 466.1365966796875
9.0, 9.086600303649902, 470.0599670410156, 466.6473388671875, 466.11279296875
9.25, 9.332599639892578, 470.0705261230469, 466.6578063964844, 466.12335205078125
9.5, 9.586799621582031, 470.0458679199219, 466.6335144042969, 466.0989990234375
9.75, 9.838600158691406, 470.0916748046875, 466.6788024902344, 466.14434814453125
10.0, 10.085000038146973, 470.0941467285156, 466.6812438964844, 466.146728515625
10.25, 10.340200424194336, 470.09844970703125, 466.68621826171875, 466.1517028808594
10.5, 10.584199905395508, 470.0771484375, 466.66436767578125, 466.1298522949219
10.75, 10.838600158691406, 470.0915832519531, 466.6793212890625, 466.144775390625
11.0, 11.088399887084961, 470.10345458984375, 466.6904296875, 466.15582275390625
11.25, 11.332599639892578, 470.1148986816406, 466.70074462890625, 466.1661071777344
11.5, 11.59220027923584, 470.0896301269531, 466.6768798828125, 466.1422424316406
11.75, 11.838800430297852, 470.1026306152344, 466.6897277832031, 466.15509033203125
12.0, 12.083800315856934, 470.1274108886719, 466.715576171875, 466.1809387207031
12.25, 12.340399742126465, 470.1168212890625, 466.7037658691406, 466.169189453125
12.5, 12.590800285339355, 470.0973205566406, 466.6843566894531, 466.1497802734375
12.75, 12.833999633789062, 470.0716552734375, 466.65802001953125, 466.1235046386719
13.0, 13.129199981689453, 470.0986328125, 466.6856689453125, 466.1510925292969
13.25, 13.335800170898438, 470.0729675292969, 466.660400390625, 466.1259765625
13.5, 13.584600448608398, 470.0826416015625, 466.67108154296875, 466.1365661621094
13.75, 13.835000038146973, 470.0975036621094, 466.6845703125, 466.15008544921875
14.0, 14.083000183105469, 470.0881652832031, 466.67529296875, 466.140380859375
14.25, 14.335200309753418, 470.1101379394531, 466.69708251953125, 466.1624755859375
14.5, 14.584400177001953, 470.1111755371094, 466.69708251953125, 466.16241455078125
14.75, 14.832200050354004, 470.1124267578125, 466.6994934082031, 466.164794921875
15.0, 15.083999633789062, 470.0799255371094, 466.667236328125, 466.1325378417969
15.25, 15.33240032196045, 470.1138610839844, 466.7003479003906, 466.16558837890625
15.5, 15.584400177001953, 470.0887451171875, 466.6745300292969, 466.1398620605469
15.75, 15.832799911499023, 470.09722900390625, 466.6843566894531, 466.1497802734375
16.0, 16.084400177001953, 470.1055908203125, 466.6925048828125, 466.1578674316406
16.25, 16.335800170898438, 470.148681640625, 466.7364196777344, 466.2018737792969
16.5, 16.585599899291992, 470.0890808105469, 466.67633056640625, 466.1418151855469
16.75, 16.832000732421875, 470.0971984863281, 466.6842346191406, 466.1496887207031
17.0, 17.083999633789062, 470.10723876953125, 466.6943359375, 466.1597595214844
17.25, 17.3346004486084, 470.1220703125, 466.7088623046875, 466.17425537109375
17.5, 17.585399627685547, 470.0923767089844, 466.6795959472656, 466.14495849609375
17.75, 17.832199096679688, 470.110107421875, 466.6971130371094, 466.1624450683594
18.0, 18.082000732421875, 470.10650634765625, 466.6941223144531, 466.159423828125
18.25, 18.333599090576172, 470.09991455078125, 466.68841552734375, 466.1536865234375
18.5, 18.5846004486084, 470.10345458984375, 466.6906433105469, 466.1559143066406
18.75, 18.833999633789062, 470.1016845703125, 466.68927001953125, 466.154541015625
19.0, 19.083599090576172, 470.0973815917969, 466.6845397949219, 466.1498107910156
19.25, 19.333999633789062, 470.0953063964844, 466.68243408203125, 466.1477966308594
19.5, 19.585399627685547, 470.5614318847656, 467.1492004394531, 466.6136474609375
19.75, 19.834199905395508, 470.80157470703125, 467.3935852050781, 466.85504150390625
20.0, 20.083999633789062, 470.7417297363281, 467.32562255859375, 466.7913818359375
20.25, 20.334999084472656, 470.77679443359375, 467.35882568359375, 466.8252258300781
20.5, 20.582399368286133, 470.783447265625, 467.36767578125, 466.8338928222656
20.75, 20.832599639892578, 470.7784118652344, 467.361083984375, 466.8271789550781
21.0, 21.083799362182617, 470.76629638671875, 467.3492736816406, 466.8153381347656
21.25, 21.336200714111328, 470.7552185058594, 467.3382263183594, 466.8044128417969
21.5, 21.583799362182617, 470.79571533203125, 467.3780822753906, 466.8442077636719
21.75, 21.83340072631836, 470.8033142089844, 467.3858337402344, 466.8519287109375
22.0, 22.08300018310547, 470.76153564453125, 467.3443298339844, 466.8104248046875
22.25, 22.334999084472656, 470.7715759277344, 467.3529968261719, 466.81915283203125
22.5, 22.58300018310547, 470.767822265625, 467.3479919433594, 466.81414794921875
22.75, 22.832599639892578, 470.7695007324219, 467.3525695800781, 466.81878662109375
23.0, 23.083799362182617, 470.754638671875, 467.3375244140625, 466.8036804199219
23.25, 23.333799362182617, 470.7896423339844, 467.37042236328125, 466.83599853515625
23.5, 23.584199905395508, 470.7471618652344, 467.3301086425781, 466.79620361328125
23.75, 23.833599090576172, 470.7874755859375, 467.3699645996094, 466.8358154296875
24.0, 24.082799911499023, 470.7534484863281, 467.3383483886719, 466.8037414550781
24.25, 24.334400177001953, 470.7771911621094, 467.35931396484375, 466.82672119140625
24.5, 24.583999633789062, 470.75103759765625, 467.3331298828125, 466.7989196777344
24.75, 24.83300018310547, 470.7640380859375, 467.3460998535156, 466.8126525878906
25.0, 25.086000442504883, 470.78009033203125, 467.3637390136719, 466.8294372558594
25.25, 25.33300018310547, 470.7948303222656, 467.3763732910156, 466.8423767089844
25.5, 25.583999633789062, 470.7569580078125, 467.3372802734375, 466.8034362792969
25.75, 25.834199905395508, 473.8242492675781, 471.5269470214844, 469.8538818359375
26.0, 26.086200714111328, 626.4622802734375, 653.468994140625, 620.7908935546875
26.25, 26.33340072631836, 461.0182189941406, 485.41204833984375, 457.2327575683594
26.5, 26.582199096679688, 469.32073974609375, 481.7003479003906, 465.4496765136719
26.75, 26.83300018310547, 472.74169921875, 477.01165771484375, 468.8240661621094
27.0, 27.083200454711914, 455.805908203125, 424.29632568359375, 452.1164855957031
27.25, 27.333599090576172, 484.2086486816406, 461.6899719238281, 480.1152648925781
27.5, 27.583999633789062, 477.826171875, 465.2154541015625, 473.8008728027344
27.75, 27.834800720214844, 476.59063720703125, 470.0799865722656, 472.5809631347656
28.0, 28.08300018310547, 476.4380187988281, 473.0583801269531, 472.4317321777344
28.25, 28.332799911499023, 475.952880859375, 474.6053466796875, 471.9477233886719
28.5, 28.583799362182617, 475.231201171875, 475.2429504394531, 471.2741394042969
28.75, 28.834800720214844, 726.1221923828125, 742.9392700195312, 719.5695190429688
29.0, 29.084199905395508, 458.6651916503906, 487.6190185546875, 454.8454895019531
29.25, 29.334800720214844, 466.7545166015625, 484.12982177734375, 462.86077880859375
29.5, 29.582599639892578, 470.106689453125, 479.3529052734375, 466.16552734375
29.75, 29.833799362182617, 453.7781066894531, 426.5995178222656, 450.2276611328125
30.0, 30.083999633789062, 480.96307373046875, 462.88385009765625, 476.8441162109375
30.25, 30.333599090576172, 474.2856140136719, 465.7804870605469, 470.2364196777344
30.5, 30.584400177001953, 471.6675109863281, 469.8912048339844, 467.6543273925781
30.75, 30.834199905395508, 470.8240966796875, 472.8316345214844, 466.82489013671875
31.0, 31.08340072631836, 759.4122314453125, 769.4297485351562, 751.0753173828125
31.25, 31.332799911499023, 455.0515441894531, 489.0610656738281, 451.2340087890625
31.5, 31.584999084472656, 463.84844970703125, 485.4352111816406, 459.97296142578125
31.75, 31.832799911499023, 468.0210876464844, 480.9566650390625, 464.0946350097656
32.0, 32.08580017089844, 334.5390625, 327.0850524902344, 329.86749267578125
32.25, 32.33319854736328, 485.3598327636719, 462.4859313964844, 481.2147521972656
32.5, 32.58259963989258, 476.5155334472656, 464.7206726074219, 472.4424743652344
32.75, 32.83140182495117, 472.39923095703125, 468.8954162597656, 468.3743591308594
33.0, 33.08359909057617, 471.16802978515625, 472.4076232910156, 467.1628723144531
33.25, 33.332401275634766, 629.3856811523438, 649.1815185546875, 626.9415283203125
33.5, 33.582801818847656, 455.27093505859375, 489.9591979980469, 451.4583435058594
33.75, 33.83319854736328, 463.88238525390625, 486.0426025390625, 460.0039367675781
34.0, 34.084598541259766, 468.2851257324219, 481.6287536621094, 464.3560485839844
34.25, 34.331600189208984, 469.8453369140625, 478.0958251953125, 465.8971252441406
34.5, 34.584999084472656, 485.6582946777344, 460.9251403808594, 481.5157775878906
34.75, 34.834800720214844, 477.9055480957031, 464.63995361328125, 473.8189392089844
35.0, 35.085201263427734, 473.0815734863281, 468.7015686035156, 469.0493469238281
35.25, 35.33340072631836, 471.5760192871094, 472.3393249511719, 467.5669250488281
35.5, 35.58399963378906, 577.1474609375, 592.386962890625, 574.778076171875
35.75, 35.832801818847656, 455.5787353515625, 490.4562072753906, 451.7573547363281
36.0, 36.08420181274414, 463.652587890625, 486.3552551269531, 459.782470703125
36.25, 36.33359909057617, 467.88739013671875, 482.34783935546875, 463.97314453125
36.5, 36.584800720214844, 469.8554382324219, 478.6446838378906, 465.91583251953125
36.75, 36.83539962768555, 453.2214050292969, 425.9501037597656, 449.514892578125
37.0, 37.08319854736328, 482.31787109375, 464.3145446777344, 478.208251953125
37.25, 37.332801818847656, 475.8902282714844, 467.7259521484375, 471.8516540527344
37.5, 37.58580017089844, 473.69952392578125, 472.1185607910156, 469.6944274902344
37.75, 37.832801818847656, 734.0269165039062, 750.40869140625, 727.2113037109375
38.0, 38.08259963989258, 457.5896301269531, 489.5840148925781, 453.7848815917969
38.25, 38.33399963378906, 466.759033203125, 486.0470886230469, 462.8851013183594
38.5, 38.58440017700195, 470.7171325683594, 481.8007507324219, 466.79718017578125
38.75, 38.83420181274414, 472.3183898925781, 478.0360412597656, 468.37164306640625
39.0, 39.08399963378906, 480.8178405761719, 451.3897705078125, 476.723388671875
39.25, 39.33259963989258, 481.5383605957031, 464.68133544921875, 477.4512634277344
39.5, 39.58359909057617, 476.2553405761719, 468.54412841796875, 472.22406005859375
39.75, 39.832401275634766, 474.43231201171875, 472.7229919433594, 470.4266052246094
40.0, 40.085601806640625, 686.1153564453125, 711.1679077148438, 680.3790893554688
40.25, 40.33300018310547, 458.6905212402344, 488.9245910644531, 454.8763427734375
40.5, 40.58359909057617, 467.7351379394531, 485.6121826171875, 463.8463439941406
40.75, 40.83219909667969, 471.2870788574219, 481.3896179199219, 467.3568420410156
41.0, 41.084999084472656, 472.6049499511719, 477.72601318359375, 468.6554870605469
41.25, 41.334999084472656, 487.58746337890625, 459.51318359375, 483.4535827636719
41.5, 41.585601806640625, 480.3475646972656, 465.1726989746094, 476.27020263671875
41.75, 41.83259963989258, 475.8396911621094, 469.2496032714844, 471.8136291503906
42.0, 42.085601806640625, 474.2991027832031, 473.2731628417969, 470.294189453125
42.25, 42.33300018310547, 635.6951293945312, 665.5032958984375, 630.4406127929688
42.5, 42.582000732421875, 460.1780700683594, 488.4895324707031, 456.3529968261719
42.75, 42.83259963989258, 468.1620788574219, 485.3548889160156, 464.2684326171875
43.0, 43.08359909057617, 471.54315185546875, 480.8438415527344, 467.6070861816406
43.25, 43.33319854736328, 359.505615234375, 340.9055480957031, 356.429931640625
43.5, 43.58259963989258, 488.6812438964844, 462.03546142578125, 484.53271484375
43.75, 43.83380126953125, 479.6838073730469, 465.8875732421875, 475.6165771484375
44.0, 44.08359909057617, 475.4630126953125, 470.0583801269531, 471.4418640136719
44.25, 44.33440017700195, 474.0646667480469, 474.0377197265625, 470.0676574707031
44.5, 44.585601806640625, 475.319091796875, 512.1170654296875, 471.3843994140625
44.75, 44.834598541259766, 464.04925537109375, 487.6214599609375, 460.203857421875
45.0, 45.08440017700195, 469.9687805175781, 483.72235107421875, 466.0670166015625
45.25, 45.33420181274414, 472.4635009765625, 479.4989318847656, 468.53045654296875
45.5, 45.585601806640625, 283.2416076660156, 260.8402404785156, 281.2811584472656
45.75, 45.83359909057617, 489.3076171875, 462.5603942871094, 485.17236328125
46.0, 46.08340072631836, 480.0465393066406, 466.144775390625, 475.9898376464844
46.25, 46.39799880981445, 476.0912780761719, 471.59130859375, 472.0848083496094
46.5, 46.585601806640625, 475.5208740234375, 474.2726135253906, 471.525634765625
46.75, 46.834800720214844, 463.65911865234375, 497.1728820800781, 459.838134765625
47.0, 47.08580017089844, 466.7399597167969, 486.71478271484375, 462.87646484375
47.25, 47.335201263427734, 471.80926513671875, 482.6288146972656, 467.89642333984375
47.5, 47.58599853515625, 473.722900390625, 478.5482177734375, 469.778564453125
47.75, 47.832000732421875, 402.087646484375, 374.11700439453125, 398.6259765625
48.0, 48.08420181274414, 486.3585205078125, 463.7579345703125, 482.2477111816406
48.25, 48.332801818847656, 478.9500427246094, 467.16650390625, 474.9090881347656
48.5, 48.585601806640625, 476.2950134277344, 471.74114990234375, 472.28851318359375
48.75, 48.83399963378906, 579.4865112304688, 574.7473754882812, 573.6165771484375
49.0, 49.08319854736328, 459.5294494628906, 489.6385498046875, 455.7298278808594
49.25, 49.33259963989258, 468.16888427734375, 485.7808532714844, 464.29461669921875
49.5, 49.58340072631836, 472.491455078125, 481.5131530761719, 468.56884765625
49.75, 49.91080093383789, 474.0942687988281, 476.9932861328125, 470.1465759277344
50.0, 50.08319854736328, 472.9852294921875, 440.79766845703125, 468.97900390625
50.25, 50.33319854736328, 483.7300109863281, 464.3445129394531, 479.63861083984375
50.5, 50.58620071411133, 477.9591979980469, 468.3097229003906, 473.92633056640625
50.75, 50.83259963989258, 475.9782409667969, 472.6711120605469, 471.97491455078125
51.0, 51.08340072631836, 640.55908203125, 671.1871337890625, 635.2705078125
51.25, 51.33359909057617, 461.552978515625, 488.2576599121094, 457.7349853515625
51.5, 51.58259963989258, 469.6143493652344, 485.02618408203125, 465.72601318359375
51.75, 51.83259963989258, 473.05157470703125, 480.5769348144531, 469.12225341796875
52.0, 52.084598541259766, 473.5845947265625, 476.7676696777344, 469.6418151855469
52.25, 52.33399963378906, 488.6971130371094, 458.86688232421875, 484.55950927734375
52.5, 52.58300018310547, 481.2302551269531, 465.0357360839844, 477.1678466796875
52.75, 52.832401275634766, 476.9172058105469, 469.3226623535156, 472.90338134765625
53.0, 53.08399963378906, 475.611572265625, 473.3714599609375, 471.6245422363281
53.25, 53.332000732421875, 470.1868896484375, 504.41729736328125, 466.3148498535156
53.5, 53.58539962768555, 466.1373596191406, 486.410400390625, 462.2934265136719
53.75, 53.83340072631836, 471.6719665527344, 482.2837219238281, 467.7718811035156
54.0, 54.085201263427734, 473.8924865722656, 478.11175537109375, 469.9617614746094
54.25, 54.33440017700195, 279.940673828125, 255.54806518554688, 277.504638671875
54.5, 54.58219909667969, 488.9964294433594, 462.53790283203125, 484.8716735839844
54.75, 54.83140182495117, 480.4244384765625, 465.7871398925781, 476.38153076171875
55.0, 55.08420181274414, 477.15130615234375, 470.474365234375, 473.148193359375
55.25, 55.33440017700195, 483.810546875, 474.1878356933594, 479.5614318847656
55.5, 55.58539962768555, 460.4151916503906, 490.4992370605469, 456.62152099609375
55.75, 55.832801818847656, 468.7552795410156, 485.26171875, 464.8907470703125
56.0, 56.084800720214844, 473.0240783691406, 480.9740295410156, 469.1108093261719
56.25, 56.33300018310547, 474.5649108886719, 477.0804138183594, 470.62725830078125
56.5, 56.58420181274414, 456.1648864746094, 422.5908508300781, 452.2812805175781
56.75, 56.83319854736328, 485.2997741699219, 463.3651428222656, 481.20928955078125
57.0, 57.08440017700195, 478.9378967285156, 467.26885986328125, 474.9125061035156
57.25, 57.33300018310547, 476.75665283203125, 471.743896484375, 472.76007080078125
57.5, 57.584800720214844, 659.3009643554688, 645.8492431640625, 653.8961181640625
57.75, 57.832401275634766, 461.926025390625, 487.50262451171875, 458.1214904785156
58.0, 58.08340072631836, 470.2157897949219, 483.9067687988281, 466.3333435058594
58.25, 58.331600189208984, 473.6502685546875, 479.6335144042969, 469.7276611328125
58.5, 58.58639907836914, 474.71502685546875, 476.17706298828125, 470.7732849121094
58.75, 58.83399963378906, 490.02008056640625, 458.5156555175781, 485.8780822753906
59.0, 59.082801818847656, 482.21282958984375, 464.5442199707031, 478.1502380371094
59.25, 59.335601806640625, 477.8446044921875, 468.8752136230469, 473.83050537109375
59.5, 59.58380126953125, 476.4623718261719, 472.9561767578125, 472.4697570800781
59.75, 59.83300018310547, 490.77105712890625, 525.6213989257812, 486.7576904296875
