Time, Timer, measurement1.Three-phase Meter1.VLn_RMS, measurement2.Three-phase Meter2.VLn_RMS, measurement3.Three-phase Meter3.VLn_RMS
0.25, 0.29820001125335693, 470.6729736328125, 467.0771179199219, 466.6490478515625
0.5, 0.5573999881744385, 469.7221374511719, 466.1354675292969, 465.70819091796875
0.75, 0.7986000180244446, 471.3146057128906, 467.71624755859375, 467.2903747558594
1.0, 1.0485999584197998, 470.5104675292969, 466.917724609375, 466.4913024902344
1.25, 1.2970000505447388, 470.8191223144531, 467.2234191894531, 466.79620361328125
1.5, 1.5606000423431396, 470.8392028808594, 467.246826171875, 466.8193054199219
1.75, 1.826200008392334, 471.9135437011719, 468.3716735839844, 467.9050598144531
2.0, 2.0799999237060547, 471.1309814453125, 467.6778869628906, 467.1597595214844
2.25, 2.338200092315674, 470.9493408203125, 467.5212707519531, 466.9940185546875
2.5, 2.5764000415802, 470.8871765136719, 467.46295166015625, 466.9299011230469
2.75, 2.835200071334839, 470.865966796875, 467.4445495605469, 466.910400390625
3.0, 3.078200101852417, 470.9409484863281, 467.5195007324219, 466.9844970703125
3.25, 3.330399990081787, 470.8702697753906, 467.4521484375, 466.9170227050781
3.5, 3.5815999507904053, 470.86932373046875, 467.4472351074219, 466.9119567871094
3.75, 3.8348000049591064, 470.930419921875, 467.5068054199219, 466.9713439941406
4.0, 4.087600231170654, 470.8760986328125, 467.4584655761719, 466.9217529296875
4.25, 4.337399959564209, 470.85662841796875, 467.43511962890625, 466.8997497558594
4.5, 4.5767998695373535, 470.9376220703125, 467.52056884765625, 466.9850158691406
4.75, 4.830999851226807, 470.9530944824219, 467.53594970703125, 467.0002746582031
5.0, 5.088600158691406, 470.94000244140625, 467.52227783203125, 466.9866638183594
5.25, 5.337800025939941, 470.97265625, 467.55438232421875, 467.0186767578125
5.5, 5.582799911499023, 470.9604187011719, 467.53985595703125, 467.0040588378906
5.75, 5.8302001953125, 470.9521789550781, 467.53387451171875, 466.9981689453125
6.0, 6.089200019836426, 471.0555114746094, 467.6353454589844, 467.09954833984375
6.25, 6.330399990081787, 470.855224609375, 467.4317932128906, 466.89617919921875
6.5, 6.588399887084961, 471.018310546875, 467.5989074707031, 467.0631103515625
6.75, 6.827400207519531, 470.97943115234375, 467.564453125, 467.02880859375
7.0, 7.089200019836426, 471.04730224609375, 467.62872314453125, 467.093017578125
7.25, 7.327000141143799, 470.98211669921875, 467.56341552734375, 467.02777099609375
7.5, 7.57919979095459, 470.9656066894531, 467.543212890625, 467.0075988769531
7.75, 7.828400135040283, 470.97528076171875, 467.55731201171875, 467.0216064453125
8.0, 8.09220027923584, 471.0697937011719, 467.65069580078125, 467.1148986816406
8.25, 8.343400001525879, 471.01300048828125, 467.5945739746094, 467.058837890625
8.5, 8.598600387573242, 471.0699768066406, 467.64935302734375, 467.1133728027344
8.75, 8.84160041809082, 471.0552673339844, 467.6340026855469, 467.09808349609375
9.0, 9.097200393676758, 470.9451904296875, 467.5279235839844, 466.9920959472656
9.25, 9.342000007629395, 471.00469970703125, 467.5850830078125, 467.0491638183594
9.5, 9.596400260925293, 470.9941711425781, 467.57427978515625, 467.0384826660156
9.75, 9.846599578857422, 470.9957275390625, 467.57684326171875, 467.0408935546875
10.0, 10.092399597167969, 470.9564514160156, 467.5384521484375, 467.0026550292969
10.25, 10.34060001373291, 471.0664367675781, 467.6497497558594, 467.1138916015625
10.5, 10.599800109863281, 471.0291442871094, 467.6106262207031, 467.0748291015625
10.75, 10.843600273132324, 471.1122131347656, 467.6936340332031, 467.1578369140625
11.0, 11.092000007629395, 471.0925598144531, 467.6724853515625, 467.13671875
11.25, 11.346799850463867, 471.0119323730469, 467.59417724609375, 467.0584716796875
11.5, 11.593999862670898, 471.0283203125, 467.6054382324219, 467.0697021484375
11.75, 11.848999977111816, 471.0572509765625, 467.6428527832031, 467.1070251464844
12.0, 12.09160041809082, 470.9383239746094, 467.5204162597656, 466.9847717285156
12.25, 12.348999977111816, 471.0532531738281, 467.63067626953125, 467.0947570800781
12.5, 12.59160041809082, 471.0232238769531, 467.598388671875, 467.06256103515625
12.75, 12.846400260925293, 471.0494079589844, 467.6304016113281, 467.0945129394531
13.0, 13.097000122070312, 470.97369384765625, 467.55157470703125, 467.0157165527344
13.25, 13.341400146484375, 471.0802307128906, 467.6548767089844, 467.1189880371094
13.5, 13.590399742126465, 471.04815673828125, 467.62811279296875, 467.09228515625
13.75, 13.847800254821777, 471.0592346191406, 467.6376953125, 467.1018371582031
14.0, 14.09939956665039, 471.0296936035156, 467.6116638183594, 467.0759582519531
14.25, 14.347999572753906, 471.0053405761719, 467.5862731933594, 467.05059814453125
14.5, 14.599599838256836, 471.0414733886719, 467.6208801269531, 467.08514404296875
14.75, 14.840800285339355, 471.01702880859375, 467.5967102050781, 467.0610046386719
15.0, 15.091400146484375, 471.0278625488281, 467.6103515625, 467.0747375488281
15.25, 15.34179973602295, 470.99749755859375, 467.5802001953125, 467.0431213378906
15.5, 15.598199844360352, 471.0924377441406, 467.67083740234375, 467.135009765625
15.75, 15.841400146484375, 471.0383605957031, 467.619384765625, 467.08355712890625
16.0, 16.094600677490234, 471.0401611328125, 467.6236572265625, 467.0877990722656
16.25, 16.34040069580078, 471.00433349609375, 467.58416748046875, 467.0483703613281
16.5, 16.594999313354492, 470.9802551269531, 467.5608215332031, 467.0249938964844
16.75, 16.840200424194336, 470.99139404296875, 467.5744934082031, 467.03863525390625
17.0, 17.107200622558594, 471.005859375, 467.5910949707031, 467.05523681640625
17.25, 17.34440040588379, 471.03460693359375, 467.62127685546875, 467.0859069824219
17.5, 17.597000122070312, 471.00433349609375, 467.5872497558594, 467.0528869628906
17.75, 17.841800689697266, 471.0733947753906, 467.6559143066406, 467.1200866699219
18.0, 18.099599838256836, 471.0452880859375, 467.62860107421875, 467.0916748046875
18.25, 18.341400146484375, 471.0163879394531, 467.59979248046875, 467.06414794921875
18.5, 18.59939956665039, 471.0746765136719, 467.6536560058594, 467.117919921875
18.75, 18.848600387573242, 471.03778076171875, 467.6207275390625, 467.08502197265625
19.0, 19.10099983215332, 471.0464782714844, 467.63165283203125, 467.09588623046875
19.25, 19.341400146484375, 471.03936767578125, 467.62091064453125, 467.08514404296875
19.5, 19.591400146484375, 471.0132141113281, 467.5957946777344, 467.0600280761719
19.75, 19.850000381469727, 470.9676208496094, 467.5494384765625, 467.0135803222656
20.0, 20.092199325561523, 470.9927673339844, 467.57952880859375, 467.0438232421875
20.25, 20.341800689697266, 471.04254150390625, 467.6226501464844, 467.08673095703125
20.5, 20.5939998626709, 471.0402526855469, 467.61651611328125, 467.0806579589844
20.75, 20.84160041809082, 471.042724609375, 467.62445068359375, 467.08868408203125
21.0, 21.09160041809082, 470.99554443359375, 467.5766296386719, 467.04083251953125
21.25, 21.349599838256836, 471.03790283203125, 467.6202087402344, 467.08441162109375
21.5, 21.592199325561523, 471.0049743652344, 467.5892333984375, 467.05352783203125
21.75, 21.847999572753906, 471.0522766113281, 467.6318664550781, 467.09613037109375
22.0, 22.096799850463867, 470.97149658203125, 467.55780029296875, 467.022216796875
22.25, 22.341400146484375, 471.146728515625, 467.7254943847656, 467.1895751953125
22.5, 22.59079933166504, 470.94769287109375, 467.528564453125, 466.9927673339844
22.75, 22.848600387573242, 470.9297180175781, 467.5127258300781, 466.97711181640625
23.0, 23.094200134277344, 471.00201416015625, 467.5832824707031, 467.0475158691406
23.25, 23.349000930786133, 470.9708557128906, 467.5520324707031, 467.0162658691406
23.5, 23.598600387573242, 471.07269287109375, 467.65228271484375, 467.1164245605469
23.75, 23.84939956665039, 471.0516357421875, 467.6298522949219, 467.0939025878906
24.0, 24.094600677490234, 471.0234375, 467.6032409667969, 467.0672912597656
24.25, 24.34239959716797, 471.0074462890625, 467.58917236328125, 467.053466796875
24.5, 24.597200393676758, 471.0897521972656, 467.6673583984375, 467.1315002441406
24.75, 24.84040069580078, 470.89251708984375, 467.4773864746094, 466.94183349609375
25.0, 25.095800399780273, 470.9665832519531, 467.544189453125, 467.0087585449219
25.25, 25.342599868774414, 471.0538635253906, 467.6329040527344, 467.09722900390625
25.5, 25.599199295043945, 470.97576904296875, 467.5585632324219, 467.0229187011719
25.75, 25.840999603271484, 471.0342102050781, 467.6142883300781, 467.0785217285156
26.0, 26.09600067138672, 471.039306640625, 467.6201171875, 467.0843200683594
26.25, 26.349199295043945, 475.4503173828125, 474.26239013671875, 471.46929931640625
26.5, 26.63920021057129, 474.9524841308594, 475.09161376953125, 470.981689453125
26.75, 26.849199295043945, 474.87078857421875, 475.3290710449219, 470.90032958984375
27.0, 27.098800659179688, 474.9386901855469, 475.4667663574219, 470.9651794433594
27.25, 27.340999603271484, 474.9470520019531, 475.5422058105469, 470.9795227050781
27.5, 27.599199295043945, 475.12274169921875, 475.78912353515625, 471.1497497558594
27.75, 27.848800659179688, 475.14532470703125, 475.86419677734375, 471.172607421875
28.0, 28.100400924682617, 475.1119689941406, 475.8813781738281, 471.1391296386719
28.25, 28.37019920349121, 475.1219482421875, 475.9280700683594, 471.14892578125
28.5, 28.590999603271484, 475.0741271972656, 475.9003601074219, 471.1019287109375
28.75, 28.846599578857422, 475.09954833984375, 475.9382019042969, 471.12628173828125
29.0, 29.091800689697266, 475.0819091796875, 475.9323425292969, 471.10858154296875
29.25, 29.34779930114746, 475.171875, 476.0193786621094, 471.19842529296875
29.5, 29.590599060058594, 474.94146728515625, 475.78887939453125, 470.9683532714844
29.75, 29.845399856567383, 475.0506286621094, 475.9110412597656, 471.07928466796875
30.0, 30.09079933166504, 475.04833984375, 475.91015625, 471.0750732421875
30.25, 30.341400146484375, 475.05023193359375, 475.9164123535156, 471.07562255859375
30.5, 30.605600357055664, 475.02410888671875, 475.8959045410156, 471.05194091796875
30.75, 30.846799850463867, 475.0245666503906, 475.8896179199219, 471.05206298828125
31.0, 31.09939956665039, 475.0903625488281, 475.9454650878906, 471.1176452636719
31.25, 31.349000930786133, 475.1436462402344, 476.0010681152344, 471.17437744140625
31.5, 31.59819984436035, 475.0977783203125, 475.95819091796875, 471.1275329589844
31.75, 31.848400115966797, 475.1591491699219, 476.0160827636719, 471.1852722167969
32.0, 32.094200134277344, 475.0413818359375, 475.9032897949219, 471.0692443847656
32.25, 32.34120178222656, 475.08660888671875, 475.9531555175781, 471.1143798828125
32.5, 32.59040069580078, 475.096923828125, 475.9514465332031, 471.12353515625
32.75, 32.841800689697266, 475.0455017089844, 475.8934631347656, 471.0741271972656
33.0, 33.09199905395508, 475.0592956542969, 475.91119384765625, 471.091796875
33.25, 33.34040069580078, 475.08062744140625, 475.9259033203125, 471.10711669921875
33.5, 33.598201751708984, 475.06158447265625, 475.91290283203125, 471.0888977050781
33.75, 33.84080123901367, 475.205078125, 476.0602111816406, 471.2294921875
34.0, 34.094398498535156, 475.1109313964844, 475.9716491699219, 471.139892578125
34.25, 34.34159851074219, 475.0525207519531, 475.8984680175781, 471.0781555175781
34.5, 34.59700012207031, 475.0594177246094, 475.9028015136719, 471.0840148925781
34.75, 34.84280014038086, 475.0570983886719, 475.897216796875, 471.0809631347656
35.0, 35.09120178222656, 475.0495300292969, 475.8924865722656, 471.0783996582031
35.25, 35.3401985168457, 475.0711364746094, 475.9095764160156, 471.0922546386719
35.5, 35.59280014038086, 475.07806396484375, 475.9311828613281, 471.1040954589844
35.75, 35.84159851074219, 475.0476989746094, 475.89837646484375, 471.07427978515625
36.0, 36.09519958496094, 475.1121826171875, 475.95654296875, 471.1396484375
36.25, 36.34080123901367, 475.1560363769531, 475.99993896484375, 471.182373046875
36.5, 36.59320068359375, 475.0795593261719, 475.9192199707031, 471.10675048828125
36.75, 36.84040069580078, 475.0353088378906, 475.8705139160156, 471.060546875
37.0, 37.091400146484375, 475.0962829589844, 475.9442138671875, 471.12347412109375
37.25, 37.340999603271484, 475.0094299316406, 475.86566162109375, 471.0383605957031
37.5, 37.59239959716797, 475.0110778808594, 475.859130859375, 471.0359802246094
37.75, 37.84120178222656, 475.05767822265625, 475.9033203125, 471.0843811035156
38.0, 38.10020065307617, 475.0038757324219, 475.84576416015625, 471.03033447265625
38.25, 38.34280014038086, 475.1226501464844, 475.96551513671875, 471.15350341796875
38.5, 38.59159851074219, 475.0588684082031, 475.898193359375, 471.08929443359375
38.75, 38.84000015258789, 475.0606994628906, 475.9170227050781, 471.0942077636719
39.0, 39.09040069580078, 475.05255126953125, 475.9068603515625, 471.0821533203125
39.25, 39.34280014038086, 475.0564880371094, 475.911865234375, 471.09051513671875
39.5, 39.59280014038086, 475.0518493652344, 475.90509033203125, 471.08660888671875
39.75, 39.84080123901367, 475.0201721191406, 475.8699951171875, 471.0555725097656
40.0, 40.09159851074219, 475.0965576171875, 475.9395751953125, 471.1304016113281
40.25, 40.34000015258789, 475.0933837890625, 475.93414306640625, 471.1207275390625
40.5, 40.59239959716797, 475.0970153808594, 475.94842529296875, 471.12677001953125
40.75, 40.842201232910156, 475.15460205078125, 476.00848388671875, 471.1842041015625
41.0, 41.09159851074219, 475.0685729980469, 475.9157409667969, 471.09588623046875
41.25, 41.34260177612305, 475.0443115234375, 475.89361572265625, 471.0725402832031
41.5, 41.591400146484375, 475.00543212890625, 475.848388671875, 471.0342102050781
41.75, 41.84299850463867, 475.0618591308594, 475.8970031738281, 471.0895690917969
42.0, 42.090999603271484, 475.0506896972656, 475.8921813964844, 471.0797424316406
42.25, 42.340999603271484, 475.0414123535156, 475.891845703125, 471.0723876953125
42.5, 42.59360122680664, 475.00616455078125, 475.8581237792969, 471.0362243652344
42.75, 42.84379959106445, 475.0981140136719, 475.9444580078125, 471.1244201660156
43.0, 43.09159851074219, 475.0776062011719, 475.9269714355469, 471.10595703125
43.25, 43.34280014038086, 475.0648193359375, 475.9012756347656, 471.0906677246094
43.5, 43.590999603271484, 475.0347900390625, 475.8678283691406, 471.06256103515625
43.75, 43.842201232910156, 475.0892333984375, 475.9306335449219, 471.11602783203125
44.0, 44.09260177612305, 475.0699157714844, 475.9124450683594, 471.096435546875
44.25, 44.34120178222656, 475.04779052734375, 475.8960266113281, 471.0757751464844
44.5, 44.59159851074219, 475.0364990234375, 475.8889465332031, 471.06597900390625
44.75, 44.84000015258789, 475.0282897949219, 475.875, 471.0567321777344
45.0, 45.09080123901367, 475.1146545410156, 475.953857421875, 471.143798828125
45.25, 45.34299850463867, 475.0907287597656, 475.9258117675781, 471.11590576171875
45.5, 45.59280014038086, 475.1494445800781, 475.993896484375, 471.1744079589844
45.75, 45.841800689697266, 475.0318298339844, 475.872802734375, 471.05609130859375
46.0, 46.09280014038086, 475.0653991699219, 475.9148254394531, 471.093994140625
46.25, 46.342201232910156, 475.08099365234375, 475.9317321777344, 471.106201171875
46.5, 46.592201232910156, 475.04339599609375, 475.8855895996094, 471.07000732421875
46.75, 46.84199905395508, 475.0389709472656, 475.87615966796875, 471.0658874511719
47.0, 47.09120178222656, 475.06536865234375, 475.9005432128906, 471.0913391113281
47.25, 47.34120178222656, 475.0144348144531, 475.8523864746094, 471.0408935546875
47.5, 47.59299850463867, 475.05963134765625, 475.8990478515625, 471.0860290527344
47.75, 47.84159851074219, 477.47637939453125, 478.0301208496094, 474.1891784667969
48.0, 48.09260177612305, 476.99908447265625, 476.87860107421875, 475.77996826171875
48.25, 48.342201232910156, 476.9647521972656, 476.80352783203125, 476.39013671875
48.5, 48.5901985168457, 476.8071594238281, 476.70025634765625, 476.3606262207031
48.75, 48.84339904785156, 476.6640930175781, 476.55535888671875, 476.2982177734375
49.0, 49.09260177612305, 476.5586853027344, 476.4278259277344, 476.3115539550781
49.25, 49.3401985168457, 476.5880126953125, 476.45465087890625, 476.45281982421875
49.5, 49.590999603271484, 476.57598876953125, 476.4614562988281, 476.50811767578125
49.75, 49.84239959716797, 476.52032470703125, 476.42431640625, 476.4896545410156
50.0, 50.09260177612305, 476.361083984375, 476.26885986328125, 476.3490295410156
50.25, 50.341800689697266, 476.42877197265625, 476.3545837402344, 476.44696044921875
50.5, 50.591400146484375, 476.4871520996094, 476.4206237792969, 476.5174865722656
50.75, 50.84260177612305, 476.4521789550781, 476.3940734863281, 476.4920654296875
51.0, 51.09120178222656, 476.49456787109375, 476.44854736328125, 476.53961181640625
51.25, 51.341800689697266, 476.4802551269531, 476.43963623046875, 476.53411865234375
51.5, 51.59040069580078, 476.4443664550781, 476.41082763671875, 476.5021667480469
51.75, 51.84000015258789, 476.4779052734375, 476.4481506347656, 476.5359802246094
52.0, 52.09120178222656, 476.4443664550781, 476.4173278808594, 476.50555419921875
52.25, 52.341400146484375, 476.5762023925781, 476.553955078125, 476.6414489746094
52.5, 52.5901985168457, 476.31781005859375, 476.3020935058594, 476.3818664550781
52.75, 52.842201232910156, 476.4959411621094, 476.4793395996094, 476.5595703125
53.0, 53.09120178222656, 476.4831237792969, 476.4681701660156, 476.5496826171875
53.25, 53.342201232910156, 476.4087829589844, 476.3938293457031, 476.4737243652344
53.5, 53.58980178833008, 476.44342041015625, 476.431396484375, 476.5091857910156
53.75, 53.83940124511719, 476.4365234375, 476.4303283691406, 476.506103515625
54.0, 54.09320068359375, 476.46038818359375, 476.45025634765625, 476.5296936035156
54.25, 54.34000015258789, 476.5363464355469, 476.52911376953125, 476.6033630371094
54.5, 54.59040069580078, 476.41326904296875, 476.3980712890625, 476.47576904296875
54.75, 54.840599060058594, 476.5161437988281, 476.5078430175781, 476.5837707519531
55.0, 55.09299850463867, 476.4265441894531, 476.4198303222656, 476.4928283691406
55.25, 55.340999603271484, 476.4718017578125, 476.4641418457031, 476.5358581542969
55.5, 55.59080123901367, 476.44110107421875, 476.43243408203125, 476.5054931640625
55.75, 55.840599060058594, 476.443115234375, 476.4361572265625, 476.5079650878906
56.0, 56.09339904785156, 476.4685974121094, 476.46099853515625, 476.5345458984375
56.25, 56.339599609375, 476.4939270019531, 476.48577880859375, 476.55877685546875
56.5, 56.59339904785156, 476.4394836425781, 476.43121337890625, 476.5042419433594
56.75, 56.84080123901367, 476.5825500488281, 476.57476806640625, 476.6466369628906
57.0, 57.091400146484375, 476.5182189941406, 476.5106201171875, 476.581298828125
57.25, 57.341400146484375, 476.4436950683594, 476.43695068359375, 476.5079040527344
57.5, 57.590599060058594, 476.45159912109375, 476.4467468261719, 476.5184631347656
57.75, 57.83940124511719, 476.4380798339844, 476.4302062988281, 476.49932861328125
58.0, 58.09159851074219, 476.44195556640625, 476.4352111816406, 476.501953125
58.25, 58.34159851074219, 476.4400634765625, 476.4313659667969, 476.498046875
58.5, 58.59280014038086, 476.5054626464844, 476.4969482421875, 476.56536865234375
58.75, 58.84159851074219, 476.4229431152344, 476.4176330566406, 476.4878234863281
59.0, 59.09280014038086, 476.5083923339844, 476.5008544921875, 476.5690002441406
59.25, 59.34080123901367, 476.4763488769531, 476.4718322753906, 476.5391540527344
59.5, 59.59159851074219, 476.5089111328125, 476.5001525878906, 476.5685729980469
59.75, 59.840599060058594, 476.4634704589844, 476.4508056640625, 476.5218200683594
