Time, Timer, measurement1.Three-phase Meter1.VLn_RMS, measurement2.Three-phase Meter2.VLn_RMS, measurement3.Three-phase Meter3.VLn_RMS
0.25, 0.3059999942779541, 470.6509704589844, 467.05645751953125, 466.62835693359375
0.5, 0.555400013923645, 469.70709228515625, 466.110107421875, 465.6827697753906
0.75, 0.8069999814033508, 472.16741943359375, 468.5603942871094, 468.1309509277344
1.0, 1.0565999746322632, 472.5691833496094, 468.9602966308594, 468.530517578125
1.25, 1.3043999671936035, 472.4181823730469, 468.810302734375, 468.38067626953125
1.5, 1.5570000410079956, 472.5295104980469, 468.9209289550781, 468.4912414550781
1.75, 1.805400013923645, 473.32684326171875, 469.7710266113281, 469.2985534667969
2.0, 2.0571999549865723, 472.7728576660156, 469.29461669921875, 468.7854309082031
2.25, 2.3076000213623047, 472.7629089355469, 469.3178405761719, 468.7875061035156
2.5, 2.558799982070923, 472.77734375, 469.33984375, 468.80548095703125
2.75, 2.8053998947143555, 472.7533874511719, 469.3196716308594, 468.78302001953125
3.0, 3.0564000606536865, 472.7900390625, 469.3560791015625, 468.81878662109375
3.25, 3.3071999549865723, 472.5754699707031, 469.1446838378906, 468.60736083984375
3.5, 3.5566000938415527, 472.624267578125, 469.19512939453125, 468.6576843261719
3.75, 3.8062000274658203, 472.7802429199219, 469.3472900390625, 468.8096618652344
4.0, 4.057799816131592, 472.8236389160156, 469.3911437988281, 468.85345458984375
4.25, 4.304800033569336, 472.6984558105469, 469.26715087890625, 468.7295837402344
4.5, 4.5584001541137695, 472.6396484375, 469.20831298828125, 468.67083740234375
4.75, 4.805200099945068, 472.73492431640625, 469.3028259277344, 468.7653503417969
5.0, 5.056600093841553, 472.7901611328125, 469.3562927246094, 468.8186340332031
5.25, 5.304599761962891, 472.7812194824219, 469.3498229980469, 468.81219482421875
5.5, 5.5594000816345215, 472.6394958496094, 469.207763671875, 468.67041015625
5.75, 5.805200099945068, 472.6865234375, 469.2546691894531, 468.7171936035156
6.0, 6.054800033569336, 472.7535705566406, 469.3194274902344, 468.7818908691406
6.25, 6.304200172424316, 472.81671142578125, 469.3838806152344, 468.8463439941406
6.5, 6.554999828338623, 472.8404235839844, 469.4075012207031, 468.869873046875
6.75, 6.807199954986572, 472.72216796875, 469.2898254394531, 468.7523498535156
7.0, 7.058000087738037, 472.64129638671875, 469.20965576171875, 468.67218017578125
7.25, 7.305600166320801, 472.77593994140625, 469.3439636230469, 468.806396484375
7.5, 7.557199954986572, 472.7102355957031, 469.2694091796875, 468.73199462890625
7.75, 7.80679988861084, 472.77740478515625, 469.3480529785156, 468.8105163574219
8.0, 8.05780029296875, 472.7306823730469, 469.2998046875, 468.7621765136719
8.25, 8.304800033569336, 472.6978454589844, 469.2671203613281, 468.7295837402344
8.5, 8.5556001663208, 472.78363037109375, 469.35015869140625, 468.8124694824219
8.75, 8.80620002746582, 472.8914794921875, 469.45989990234375, 468.922119140625
9.0, 9.0556001663208, 472.82391357421875, 469.3910827636719, 468.8533935546875
9.25, 9.30739974975586, 472.7166748046875, 469.2828063964844, 468.74530029296875
9.5, 9.55679988861084, 472.73748779296875, 469.30743408203125, 468.76983642578125
9.75, 9.806599617004395, 472.8067626953125, 469.3745422363281, 468.8369140625
10.0, 10.05620002746582, 472.8905944824219, 469.4561767578125, 468.9186096191406
10.25, 10.303600311279297, 472.8380126953125, 469.4046630859375, 468.8670654296875
10.5, 10.557000160217285, 472.70257568359375, 469.2714538574219, 468.7340087890625
10.75, 10.804400444030762, 472.7605895996094, 469.3289489746094, 468.7914123535156
11.0, 11.05780029296875, 472.825927734375, 469.39404296875, 468.8564453125
11.25, 11.30459976196289, 472.85955810546875, 469.431396484375, 468.89385986328125
11.5, 11.554400444030762, 472.8783264160156, 469.44476318359375, 468.9070129394531
11.75, 11.80620002746582, 472.72406005859375, 469.29534912109375, 468.7577819824219
12.0, 12.05720043182373, 472.7239074707031, 469.2939758300781, 468.7563781738281
12.25, 12.30679988861084, 472.8113708496094, 469.37939453125, 468.8417053222656
12.5, 12.55720043182373, 472.90570068359375, 469.4725341796875, 468.93475341796875
12.75, 12.80739974975586, 472.8349609375, 469.40228271484375, 468.8645935058594
13.0, 13.0556001663208, 472.7503356933594, 469.31890869140625, 468.78131103515625
13.25, 13.304400444030762, 472.7056579589844, 469.2823791503906, 468.7449645996094
13.5, 13.55739974975586, 472.8612365722656, 469.430908203125, 468.8931884765625
13.75, 13.803999900817871, 472.8932189941406, 469.4600524902344, 468.9224853515625
14.0, 14.05679988861084, 472.846923828125, 469.41632080078125, 468.87872314453125
14.25, 14.3056001663208, 472.77703857421875, 469.3410949707031, 468.80364990234375
14.5, 14.55620002746582, 472.8830261230469, 469.4476318359375, 468.9100341796875
14.75, 14.807000160217285, 472.90289306640625, 469.4715881347656, 468.9339904785156
15.0, 15.05739974975586, 472.8468933105469, 469.41497802734375, 468.8774719238281
15.25, 15.303600311279297, 472.8677673339844, 469.43780517578125, 468.9001770019531
15.5, 15.55459976196289, 472.75347900390625, 469.3224182128906, 468.784912109375
15.75, 15.805800437927246, 472.9192199707031, 469.4853210449219, 468.9476318359375
16.0, 16.05620002746582, 472.8876647949219, 469.4545593261719, 468.9168395996094
16.25, 16.305599212646484, 472.85205078125, 469.41815185546875, 468.88043212890625
16.5, 16.55500030517578, 472.83477783203125, 469.40130615234375, 468.8636779785156
16.75, 16.806800842285156, 472.7580871582031, 469.3221740722656, 468.7845764160156
17.0, 17.056400299072266, 472.9500427246094, 469.513671875, 468.9758605957031
17.25, 17.306800842285156, 472.8601989746094, 469.42901611328125, 468.89129638671875
17.5, 17.557199478149414, 472.8429260253906, 469.41094970703125, 468.873291015625
17.75, 17.80699920654297, 472.8780212402344, 469.4466552734375, 468.908935546875
18.0, 18.05500030517578, 472.8265686035156, 469.39410400390625, 468.8565673828125
18.25, 18.305599212646484, 472.8772888183594, 469.4415588378906, 468.9039611816406
18.5, 18.55739974975586, 472.8931579589844, 469.462646484375, 468.9251403808594
18.75, 18.805999755859375, 472.8526306152344, 469.42095947265625, 468.8834228515625
19.0, 19.05699920654297, 472.8167419433594, 469.3755187988281, 468.8379211425781
19.25, 19.306800842285156, 472.7263488769531, 469.29193115234375, 468.7545166015625
19.5, 19.554800033569336, 472.8872985839844, 469.4524230957031, 468.91473388671875
19.75, 19.80500030517578, 472.88909912109375, 469.4533386230469, 468.9156494140625
20.0, 20.056800842285156, 472.82904052734375, 469.3967590332031, 468.8591613769531
20.25, 20.305999755859375, 472.77960205078125, 469.3492431640625, 468.8117370605469
20.5, 20.55459976196289, 472.7760314941406, 469.3470764160156, 468.8094177246094
20.75, 20.807199478149414, 472.91180419921875, 469.47894287109375, 468.9411926269531
21.0, 21.054800033569336, 472.8835754394531, 469.4493408203125, 468.91162109375
21.25, 21.304800033569336, 472.87066650390625, 469.4361877441406, 468.8985290527344
21.5, 21.555999755859375, 472.8296203613281, 469.3972473144531, 468.8596496582031
21.75, 21.804800033569336, 472.7975769042969, 469.36260986328125, 468.8250427246094
22.0, 22.05739974975586, 472.89752197265625, 469.4651794433594, 468.92755126953125
22.25, 22.306400299072266, 472.8658447265625, 469.4330749511719, 468.89556884765625
22.5, 22.556400299072266, 472.8223876953125, 469.3911437988281, 468.8537292480469
22.75, 22.803800582885742, 472.8240661621094, 469.389892578125, 468.8524475097656
23.0, 23.05780029296875, 472.7441711425781, 469.3106384277344, 468.7732238769531
23.25, 23.304800033569336, 472.86383056640625, 469.42974853515625, 468.8922119140625
23.5, 23.555999755859375, 472.9005432128906, 469.4671630859375, 468.92950439453125
23.75, 23.804399490356445, 472.847900390625, 469.4156188964844, 468.8780212402344
24.0, 24.055599212646484, 472.6767578125, 469.24456787109375, 468.7070617675781
24.25, 24.305999755859375, 472.7608947753906, 469.3257751464844, 468.7881774902344
24.5, 24.55500030517578, 472.8544921875, 469.42254638671875, 468.884765625
24.75, 24.80340003967285, 472.81524658203125, 469.3732604980469, 468.8355712890625
25.0, 25.05579948425293, 472.8298034667969, 469.3977355957031, 468.86004638671875
25.25, 25.30459976196289, 472.79937744140625, 469.3667907714844, 468.82916259765625
25.5, 25.557600021362305, 472.7875671386719, 469.3555908203125, 468.81805419921875
25.75, 25.805200576782227, 472.79998779296875, 469.3675537109375, 468.8299865722656
26.0, 26.05579948425293, 472.7998352050781, 469.3636169433594, 468.8247375488281
26.25, 26.305999755859375, 472.82977294921875, 469.397705078125, 468.86016845703125
26.5, 26.555200576782227, 472.77099609375, 469.3387756347656, 468.80133056640625
26.75, 26.806400299072266, 472.77752685546875, 469.34686279296875, 468.8094177246094
27.0, 27.054000854492188, 472.91229248046875, 469.4799499511719, 468.9423522949219
27.25, 27.305200576782227, 472.9801025390625, 469.54656982421875, 469.0087890625
27.5, 27.555999755859375, 472.9287414550781, 469.4945983886719, 468.95703125
27.75, 27.805400848388672, 472.7222595214844, 469.2896423339844, 468.7521057128906
28.0, 28.055599212646484, 472.7328796386719, 469.3009033203125, 468.76336669921875
28.25, 28.305200576782227, 472.8790588378906, 469.44610595703125, 468.9084167480469
28.5, 28.557199478149414, 472.9195861816406, 469.4877014160156, 468.9499816894531
28.75, 28.805599212646484, 472.9216003417969, 469.48809814453125, 468.9502868652344
29.0, 29.054800033569336, 472.7235107421875, 469.29095458984375, 468.75335693359375
29.25, 29.30419921875, 472.8033447265625, 469.3729553222656, 468.8353576660156
29.5, 29.55620002746582, 472.89373779296875, 469.4602966308594, 468.9225769042969
29.75, 29.805999755859375, 472.8652038574219, 469.4383850097656, 468.9007568359375
30.0, 30.055400848388672, 472.8964538574219, 469.4643859863281, 468.9267883300781
30.25, 30.30419921875, 472.7469787597656, 469.3135986328125, 468.77618408203125
30.5, 30.55660057067871, 472.7183532714844, 469.2864990234375, 468.74908447265625
30.75, 30.80579948425293, 472.8753967285156, 469.4447937011719, 468.9071960449219
31.0, 31.05660057067871, 472.90985107421875, 469.47943115234375, 468.9417724609375
31.25, 31.305999755859375, 472.90032958984375, 469.4677734375, 468.9300537109375
31.5, 31.555999755859375, 472.7663879394531, 469.33453369140625, 468.7969665527344
31.75, 31.80660057067871, 472.779541015625, 469.340576171875, 468.80224609375
32.0, 32.05659866333008, 472.8848571777344, 469.4530944824219, 468.91534423828125
32.25, 32.30400085449219, 472.85186767578125, 469.41851806640625, 468.88262939453125
32.5, 32.55720138549805, 472.8724060058594, 469.4408874511719, 468.9016418457031
32.75, 32.80339813232422, 472.7510986328125, 469.31964111328125, 468.7821044921875
33.0, 33.05619812011719, 472.8296813964844, 469.3929443359375, 468.85711669921875
33.25, 33.305599212646484, 472.88128662109375, 469.4510803222656, 468.9117736816406
33.5, 33.55540084838867, 472.8499450683594, 469.415771484375, 468.8768310546875
33.75, 33.80540084838867, 472.86248779296875, 469.4269104003906, 468.8912353515625
34.0, 34.05720138549805, 472.8117980957031, 469.3814392089844, 468.8424072265625
34.25, 34.30419921875, 472.90509033203125, 469.4717712402344, 468.9328308105469
34.5, 34.5547981262207, 472.8522033691406, 469.4146728515625, 468.8792419433594
34.75, 34.8047981262207, 472.86602783203125, 469.4371032714844, 468.89801025390625
35.0, 35.058998107910156, 472.818359375, 469.3846130371094, 468.84564208984375
35.25, 35.30459976196289, 472.70281982421875, 469.267333984375, 468.7319030761719
35.5, 35.55739974975586, 472.8519287109375, 469.42138671875, 468.882568359375
35.75, 35.8047981262207, 472.822998046875, 469.3896484375, 468.85076904296875
36.0, 36.05820083618164, 472.8019104003906, 469.3660888671875, 468.83062744140625
36.25, 36.30540084838867, 472.896728515625, 469.46246337890625, 468.9231872558594
36.5, 36.55580139160156, 472.7542419433594, 469.3248291015625, 468.7859191894531
36.75, 36.80720138549805, 472.9022216796875, 469.4656982421875, 468.9299621582031
37.0, 37.055999755859375, 472.9229736328125, 469.4940185546875, 468.95477294921875
37.25, 37.30440139770508, 472.8489990234375, 469.4136962890625, 468.8748474121094
37.5, 37.55540084838867, 472.7790222167969, 469.3429260253906, 468.8074951171875
37.75, 37.80440139770508, 472.7666931152344, 469.3385314941406, 468.79949951171875
38.0, 38.05379867553711, 472.8947448730469, 469.4632873535156, 468.92437744140625
38.25, 38.305599212646484, 472.8952331542969, 469.4581604003906, 468.9225769042969
38.5, 38.55820083618164, 472.8713073730469, 469.4412841796875, 468.9022216796875
38.75, 38.80580139160156, 472.9007873535156, 469.46759033203125, 468.9285888671875
39.0, 39.056400299072266, 472.80584716796875, 469.373046875, 468.8362731933594
39.25, 39.305999755859375, 472.870361328125, 469.4431457519531, 468.90423583984375
39.5, 39.55459976196289, 472.85595703125, 469.42254638671875, 468.8837890625
39.75, 39.8036003112793, 472.796875, 469.3634338378906, 468.8280334472656
40.0, 40.055999755859375, 472.8701477050781, 469.4386901855469, 468.8995056152344
40.25, 40.30500030517578, 472.720947265625, 469.28863525390625, 468.7497253417969
40.5, 40.5547981262207, 472.8504943847656, 469.41796875, 468.8810119628906
40.75, 40.80580139160156, 472.9089050292969, 469.4806213378906, 468.94158935546875
41.0, 41.055999755859375, 472.8380432128906, 469.4058532714844, 468.8668518066406
41.25, 41.30500030517578, 472.7046203613281, 469.2698974609375, 468.7326965332031
41.5, 41.55739974975586, 472.8283996582031, 469.399658203125, 468.8607482910156
41.75, 41.805198669433594, 472.89404296875, 469.4643249511719, 468.9254455566406
42.0, 42.05720138549805, 472.9098205566406, 469.47015380859375, 468.93341064453125
42.25, 42.30379867553711, 472.86358642578125, 469.43310546875, 468.8941955566406
42.5, 42.555599212646484, 472.75482177734375, 469.3199157714844, 468.7811279296875
42.75, 42.80339813232422, 472.752197265625, 469.3221130371094, 468.785400390625
43.0, 43.056400299072266, 472.8970031738281, 469.46954345703125, 468.9306640625
43.25, 43.30400085449219, 472.82000732421875, 469.3914489746094, 468.85272216796875
43.5, 43.55659866333008, 472.828857421875, 469.393310546875, 468.85784912109375
43.75, 43.80540084838867, 472.82110595703125, 469.390869140625, 468.8515930175781
44.0, 44.05500030517578, 472.7416076660156, 469.3108825683594, 468.77197265625
44.25, 44.305999755859375, 472.889404296875, 469.4570617675781, 468.9198913574219
44.5, 44.555599212646484, 472.8705139160156, 469.4420166015625, 468.9029541015625
44.75, 44.80500030517578, 472.84881591796875, 469.4170837402344, 468.8782653808594
45.0, 45.05540084838867, 472.7310791015625, 469.297119140625, 468.7602233886719
45.25, 45.305999755859375, 472.8010559082031, 469.37200927734375, 468.83294677734375
45.5, 45.55500030517578, 472.8504333496094, 469.41802978515625, 468.8791809082031
45.75, 45.805599212646484, 472.89593505859375, 469.4639892578125, 468.92724609375
46.0, 46.05839920043945, 472.9162902832031, 469.4871826171875, 468.9480895996094
46.25, 46.306400299072266, 472.7315673828125, 469.3016662597656, 468.7637634277344
46.5, 46.55619812011719, 472.7516784667969, 469.31915283203125, 468.78228759765625
46.75, 46.80419921875, 472.9122314453125, 469.48193359375, 468.9428405761719
47.0, 47.05400085449219, 472.8702087402344, 469.436767578125, 468.8979797363281
47.25, 47.30659866333008, 472.8844299316406, 469.4512023925781, 468.91455078125
47.5, 47.556400299072266, 472.7267150878906, 469.29864501953125, 468.75982666015625
47.75, 47.80540084838867, 472.7542419433594, 469.3243408203125, 468.7856750488281
48.0, 48.06340026855469, 472.92852783203125, 469.4927978515625, 468.9560852050781
48.25, 48.30659866333008, 472.81182861328125, 469.3896484375, 468.8504638671875
48.5, 48.55459976196289, 472.8211364746094, 469.38934326171875, 468.85052490234375
48.75, 48.80659866333008, 472.7390441894531, 469.3056640625, 468.7688293457031
49.0, 49.05659866333008, 472.7977600097656, 469.37255859375, 468.8327941894531
49.25, 49.30419921875, 472.8788757324219, 469.4457092285156, 468.90679931640625
49.5, 49.55720138549805, 472.873291015625, 469.4369812011719, 468.90020751953125
49.75, 49.8047981262207, 472.8728942871094, 469.441162109375, 468.902099609375
50.0, 50.055198669433594, 472.7611999511719, 469.3292541503906, 468.79052734375
50.25, 50.30540084838867, 472.7003173828125, 469.27294921875, 468.73687744140625
50.5, 50.55739974975586, 472.8780212402344, 469.4479675292969, 468.9089660644531
50.75, 50.8047981262207, 472.8251953125, 469.3921813964844, 468.853515625
51.0, 51.05459976196289, 476.48583984375, 474.1017150878906, 472.49200439453125
51.25, 51.306400299072266, 476.56170654296875, 474.23162841796875, 472.56341552734375
51.5, 51.55720138549805, 476.9815673828125, 474.62835693359375, 472.969482421875
51.75, 51.805999755859375, 476.6545104980469, 474.8298034667969, 472.6380310058594
52.0, 52.056800842285156, 474.7337646484375, 472.82342529296875, 470.7261962890625
52.25, 52.305999755859375, 474.6830139160156, 472.5824279785156, 470.6651306152344
52.5, 52.55500030517578, 472.3106689453125, 471.3715515136719, 468.3070373535156
52.75, 52.80459976196289, 473.8150939941406, 474.12841796875, 469.7917175292969
53.0, 53.05739974975586, 472.9082946777344, 474.24371337890625, 468.89129638671875
53.25, 53.30379867553711, 471.9147033691406, 473.59893798828125, 467.9037170410156
53.5, 53.55540084838867, 471.7826232910156, 473.5763854980469, 467.7688293457031
53.75, 53.80500030517578, 468.92193603515625, 472.2554016113281, 464.93145751953125
54.0, 54.05500030517578, 476.0652770996094, 480.4606018066406, 472.5495910644531
54.25, 54.30540084838867, 474.9173583984375, 481.6307067871094, 471.76531982421875
54.5, 54.55440139770508, 474.5121154785156, 482.4490966796875, 470.7638244628906
54.75, 54.80459976196289, 474.03448486328125, 482.45001220703125, 470.21246337890625
55.0, 55.055198669433594, 473.4095458984375, 482.5846252441406, 469.13702392578125
55.25, 55.306400299072266, 471.09552001953125, 479.502197265625, 467.90985107421875
55.5, 55.55699920654297, 471.0257568359375, 477.5007019042969, 469.7864685058594
55.75, 55.8047981262207, 470.3727111816406, 476.1623229980469, 469.3636474609375
56.0, 56.056400299072266, 470.24652099609375, 475.8127136230469, 469.5308837890625
56.25, 56.30500030517578, 469.33349609375, 475.36273193359375, 470.68707275390625
56.5, 56.555999755859375, 469.1522216796875, 475.7965087890625, 471.5594787597656
56.75, 56.80379867553711, 468.5401916503906, 475.6701965332031, 471.2313232421875
57.0, 57.05799865722656, 466.18804931640625, 472.10009765625, 469.90093994140625
57.25, 57.303199768066406, 466.79547119140625, 471.9314270019531, 470.8360290527344
57.5, 57.555999755859375, 467.1341552734375, 472.97210693359375, 470.86004638671875
57.75, 57.80400085449219, 466.50421142578125, 472.3985595703125, 470.282470703125
58.0, 58.05419921875, 466.5763244628906, 472.20343017578125, 470.5435485839844
58.25, 58.30400085449219, 466.0914001464844, 471.3299865722656, 470.1761169433594
58.5, 58.5547981262207, 466.604248046875, 471.65728759765625, 470.6227111816406
58.75, 58.80379867553711, 466.4711608886719, 471.7334289550781, 470.3628845214844
59.0, 59.05419921875, 465.105712890625, 469.8080749511719, 469.3114013671875
59.25, 59.30440139770508, 465.3311462402344, 469.3597717285156, 469.8584289550781
59.5, 59.55440139770508, 466.01312255859375, 470.2755432128906, 470.2121887207031
59.75, 59.80379867553711, 465.4932861328125, 469.7976379394531, 469.6437683105469
60.0, 60.05759811401367, 465.6876525878906, 469.74554443359375, 469.9437255859375
