Time, Timer, measurement1.Three-phase Meter1.VLn_RMS, measurement2.Three-phase Meter2.VLn_RMS, measurement3.Three-phase Meter3.VLn_RMS
0.25,0.298200011,470.2623901,466.670929,466.2431641
0.5,0.57980001,469.6858826,466.0999146,465.6726379
0.75,0.798200011,469.7140808,466.1268311,465.6995544
1,1.048400044,469.7070618,466.1176758,465.6904602
1.25,1.299000025,469.7298279,466.1417847,465.7145691
1.5,1.549800038,469.7364502,466.145874,465.7187195
1.75,1.799800038,470.590271,467.0333862,466.584259
2,2.050199986,470.079071,466.6177368,466.1113281
2.25,2.300199986,470.0244141,466.5992126,466.0740051
2.5,2.594399929,469.9952087,466.5788269,466.0467834
2.75,2.814399958,469.9988708,466.5872192,466.0535278
3,3.064599991,469.9974976,466.5847168,466.0504761
3.25,3.298799992,470.0213318,466.6062012,466.0716858
3.5,3.551599979,470.012207,466.5990906,466.0644531
3.75,3.797600031,470.0061646,466.5956116,466.0609741
4,4.050799847,470.0254211,466.6095276,466.0748291
4.25,4.301400185,470.0120544,466.6018372,466.0672302
4.5,4.550199986,470.6783142,467.265686,466.7278137
4.75,4.799799919,470.6831055,467.2651367,466.7297363
5,5.052000046,470.6524353,467.2356873,466.7008972
5.25,5.298999786,470.6936035,467.2767944,466.7418823
5.5,5.550799847,470.6913147,467.2729492,466.7380371
5.75,5.797399998,470.6946716,467.27948,466.7445068
6,6.05039978,470.6981201,467.2813416,466.7463989
6.25,6.301000118,470.7069397,467.2900696,466.7550964
6.5,6.550199986,470.7045898,467.2888489,466.7539673
6.75,6.798999786,470.7033386,467.2862549,466.7512817
7,7.050199986,470.7141113,467.2976379,466.7626038
7.25,7.299799919,470.7177429,467.3008118,466.7657776
7.5,7.551799774,470.7247009,467.3065491,466.7715454
7.75,7.80039978,470.7290039,467.3125305,466.7774658
8,8.051199913,470.714386,467.2975464,466.7624207
8.25,8.299799919,470.7151184,467.2989807,466.7638855
8.5,8.549799919,470.7326355,467.3152771,466.7801514
8.75,8.79940033,470.7419739,467.3256836,466.7905579
9,9.053600311,470.7272949,467.3102417,466.7751465
9.25,9.301600456,470.7228699,467.3062439,466.7711792
9.5,9.562000275,470.7590027,467.3427124,466.8076477
9.75,9.798399925,470.7299805,467.3127747,466.7778625
10,10.05239964,470.7428589,467.3254089,466.7904053
10.25,10.30080032,470.7373657,467.321167,466.7861633
10.5,10.55080032,470.7185059,467.301239,466.7662964
10.75,10.79839993,470.7374878,467.3200989,466.7851257
11,11.05020046,470.7409973,467.3263245,466.7912903
11.25,11.29920006,470.7407532,467.3227539,466.7877197
11.5,11.54920006,470.739502,467.322113,466.7871094
11.75,11.79740047,472.214447,468.7826233,468.2458496
12,12.05039978,472.8722534,469.4373169,468.9002991
12.25,12.29819965,472.8511658,469.4169922,468.879425
12.5,12.55459976,472.8515625,469.4201965,468.8824768
12.75,12.79959965,472.8405762,469.4104614,468.8727722
13,13.05140018,472.8530579,469.4212036,468.8835144
13.25,13.30099964,472.8729858,469.4369812,468.899231
13.5,13.55280018,472.8752136,469.4420776,468.9043274
13.75,13.79759979,472.8744202,469.4413452,468.9036255
14,14.0486002,472.8660278,469.4335022,468.8959351
14.25,14.29679966,472.8323975,469.3996887,468.8621216
14.5,14.55160046,472.8823547,469.4493713,468.9118042
14.75,14.79800034,472.8592529,469.4266968,468.8891602
15,15.05119991,472.8611145,469.4283447,468.8908081
15.25,15.30039978,472.8494873,469.4179688,468.8804321
15.5,15.54959965,472.9050598,469.4723206,468.9346619
15.75,15.80259991,472.8564148,469.4242249,468.8865967
16,16.0515995,472.8800964,469.4465637,468.9089355
16.25,16.29859924,472.8689575,469.4361572,468.8984985
16.5,16.55120087,472.8491821,469.4177551,468.8800659
16.75,16.79820061,472.8730774,469.4413757,468.903656
17,17.05179977,472.8413391,469.4094238,468.8716736
17.25,17.29940033,472.8735046,469.4398804,468.9021301
17.5,17.55220032,472.8649292,469.4334412,468.8956909
17.75,17.79899979,472.8666687,469.4338074,468.8961792
18,18.05120087,472.8921814,469.4590759,468.9213562
18.25,18.29759979,472.9004822,469.4686279,468.9309692
18.5,18.54940033,472.8880005,469.455658,468.9180298
18.75,18.81360054,472.8590698,469.426178,468.8886108
19,19.0510006,472.8638306,469.4309692,468.8934326
19.25,19.30019951,472.9060059,469.4719238,468.9346924
19.5,19.5510006,472.8930359,469.4612732,468.9237061
19.75,19.79920006,472.8920593,469.4590149,468.9212646
20,20.0510006,472.8874207,469.4552002,468.9174805
20.25,20.34160042,472.9089661,469.4755859,468.9378967
20.5,20.55039978,472.8587341,469.4280396,468.8902588
20.75,20.80019951,472.8807373,469.4477844,468.9099731
21,21.05039978,472.9476624,469.514679,468.9768372
21.25,21.29680061,472.9162292,469.4839172,468.9461365
21.5,21.55179977,472.9036255,469.4703979,468.9325867
21.75,21.79759979,472.918457,469.4880066,468.9502258
22,22.04980087,472.9002686,469.4666748,468.9289246
22.25,22.29920006,472.9354553,469.5005493,468.9627991
22.5,22.54999924,472.9015808,469.4684448,468.9307861
22.75,22.79700089,472.9023438,469.4688721,468.9312134
23,23.04920006,472.8974304,469.4685364,468.9309082
23.25,23.2996006,472.8944397,469.4603882,468.92276
23.5,23.54899979,472.899231,469.466095,468.9284668
23.75,23.79820061,472.9025269,469.4694519,468.9317322
24,24.05220032,472.8966675,469.463501,468.9256897
24.25,24.3010006,472.9075928,469.4742126,468.9364014
24.5,24.55179977,472.8596802,469.4269409,468.8891602
24.75,24.79879951,472.8928833,469.4596863,468.921875
25,25.05240059,472.8853149,469.4512939,468.9134827
25.25,25.29899979,472.9231873,469.4910583,468.9532471
25.5,25.55039978,472.9172974,469.4839783,468.9461365
25.75,25.79879951,472.8941345,469.466095,468.9283447
26,26.04999924,472.903656,469.4719543,468.9342346
26.25,26.3010006,472.8999023,469.4663086,468.9286194
26.5,26.55060005,472.8716431,469.4394836,468.8999023
26.75,26.79700089,472.8778992,469.444458,468.9069214
27,27.04999924,472.887085,469.4545288,468.9168091
27.25,27.2996006,472.8849487,469.4507141,468.9129639
27.5,27.55120087,472.8788452,469.444458,468.9067078
27.75,27.79920006,472.8821106,469.4480896,468.9103088
28,28.04719925,472.8827515,469.449585,468.9118042
28.25,28.29859924,472.8806763,469.4476624,468.9099121
28.5,28.55039978,472.8792419,469.4444275,468.9066162
28.75,28.7996006,472.8632813,469.4310608,468.8932495
29,29.04899979,472.8856812,469.4544373,468.9165955
29.25,29.29739952,472.868866,469.4389038,468.9010925
29.5,29.54980087,472.8774414,469.4436646,468.9058838
29.75,29.79800034,472.9015198,469.4677124,468.9299622
30,30.04980087,472.8575745,469.4247437,468.8870544
30.25,30.29879951,472.8686218,469.434845,468.8971252
30.5,30.55080032,472.8833313,469.4502563,468.9125671
30.75,30.79920006,472.8789063,469.4458313,468.9080811
31,31.0515995,472.8803101,469.4495544,468.9117737
31.25,31.29940033,472.8763123,469.4441223,468.906311
31.5,31.55039978,472.8677368,469.4352417,468.8973999
31.75,31.79859924,472.8905945,469.4577637,468.9198608
32,32.04959869,472.8630371,469.4299927,468.8920898
32.25,32.30099869,472.8692627,469.4367065,468.8988342
32.5,32.55199814,472.1705017,468.6633911,468.197113
32.75,32.79759979,475.5856018,475.4030151,471.6096802
33,33.05020142,473.2652588,475.9845276,469.3295898
33.25,33.30120087,471.4862976,475.1702576,467.5858459
33.5,33.54899979,470.442627,473.4762878,466.5655823
33.75,33.79880142,469.9043884,471.2144165,466.0509949
34,34.05139923,469.5956726,468.8537598,465.7559204
34.25,34.29899979,469.8053589,466.7513123,465.9667969
34.5,34.54880142,469.9978638,464.9266663,466.1615295
34.75,34.79940033,470.296051,463.3350525,466.4631653
35,35.05099869,470.6077576,462.1552734,466.7713928
35.25,35.29740143,470.9604187,461.2104187,467.1210022
35.5,35.54919815,471.289856,460.5846252,467.4483032
35.75,35.79999924,471.6219788,460.1323853,467.7806396
36,36.05139923,471.9205017,459.8601379,468.0743408
36.25,36.30139923,472.1908569,459.7561646,468.3427734
36.5,36.55139923,472.4181824,459.7194824,468.5668335
36.75,36.80059814,472.5686035,459.7259216,468.7147827
37,37.04940033,472.7438354,459.8282471,468.8847961
37.25,37.29859924,472.8485107,459.9309387,468.9932556
37.5,37.54980087,472.9268188,460.0437317,469.0675049
37.75,37.79980087,472.9689636,460.1492004,469.1099243
38,38.05239868,473.0245056,460.2787781,469.1611023
38.25,38.29940033,473.047821,460.3850098,469.1859436
38.5,38.55199814,473.1072693,460.5254211,469.2417297
38.75,38.7981987,473.1152954,460.6124573,469.2512817
39,39.05199814,473.1044922,460.6735535,469.2419434
39.25,39.29740143,473.031311,460.6608276,469.1681213
39.5,39.55059814,473.0350342,460.7191162,469.1737671
39.75,39.79740143,473.0299072,460.7531433,469.1669922
40,40.05080032,473.0103455,460.7595215,469.1470032
40.25,40.29899979,473.0110168,460.7902222,469.1489563
40.5,40.54880142,473.0202026,460.8103943,469.1569824
40.75,40.79840088,472.9929504,460.7941895,469.1261597
41,41.05080032,472.9788818,460.7907104,469.1181641
41.25,41.29940033,472.9721375,460.7843933,469.108429
41.5,41.54740143,469.6479187,459.4587097,465.8174438
41.75,41.79840088,468.5299072,459.7674561,464.7135925
42,42.05039978,467.84021,459.660553,464.0349731
42.25,42.29999924,467.4017944,459.3084412,463.6031799
42.5,42.55139923,467.1517944,458.8513794,463.3543091
42.75,42.79999924,467.0057068,458.3613281,463.2135925
43,43.05279922,466.9233093,457.8986816,463.1323242
43.25,43.30020142,466.8504639,457.4924316,463.0635681
43.5,43.54980087,466.8509827,457.1629028,463.0622253
43.75,43.79840088,466.8697205,456.9082031,463.0820313
44,44.05039978,466.8854065,456.6792908,463.0953064
44.25,44.30059814,466.9334412,456.5352783,463.1429749
44.5,44.55059814,466.9401855,456.3815613,463.1541748
44.75,44.80039978,467.0279236,456.3433228,463.2405701
45,45.04999924,467.004364,456.2203064,463.2190247
45.25,45.29919815,467.1254272,456.2622375,463.3384094
45.5,45.54779816,467.0975647,456.1738892,463.3074341
45.75,45.79740143,467.1624451,456.205658,463.3717651
46,46.04940033,467.144989,456.1667175,463.3542175
46.25,46.30059814,467.1512451,456.1628723,463.3605042
46.5,46.54899979,467.191925,456.1935425,463.4010315
46.75,46.79759979,467.2014771,456.2019043,463.4091492
47,47.05139923,467.2523193,456.2581177,463.4597168
47.25,47.29759979,467.249176,456.2609558,463.4569092
47.5,47.55139923,467.2254028,456.242981,463.4340515
47.75,47.79859924,467.2426147,456.2697754,463.4499512
48,48.04999924,467.2563782,456.2875366,463.4642639
48.25,48.29919815,467.2481384,456.2951355,463.4572449
48.5,48.54840088,467.2218018,456.2802429,463.4305725
48.75,48.79700089,467.4569092,457.0396118,463.6660461
49,49.05020142,466.9718018,457.2166748,463.1864624
49.25,49.29800034,466.8357239,457.453949,463.0506287
49.5,49.54899979,466.6881104,457.4346619,462.9055481
49.75,49.80160141,466.6314087,457.3930969,462.8499451
50,50.05120087,466.6122742,457.3436279,462.8322754
50.25,50.29999924,466.5875549,457.2673645,462.8048706
50.5,50.54999924,466.5785828,457.2241211,462.7958374
50.75,50.79959869,466.5852051,457.1865234,462.8029785
51,51.05120087,466.5892944,457.1641235,462.8084717
51.25,51.29919815,466.5818481,457.1307373,462.8044128
51.5,51.54779816,466.5935669,457.1174927,462.8117981
51.75,51.79719925,466.6603699,457.1615295,462.8790588
52,52.04999924,466.6119385,457.1002502,462.8287048
52.25,52.29919815,466.6068115,457.0847778,462.8272095
52.5,52.54660034,466.5993347,457.0673523,462.8205261
52.75,52.79719925,466.5712585,457.0300903,462.7921448
53,53.04919815,466.6360168,457.0802307,462.8592529
53.25,53.30179977,466.6206665,457.066803,462.839386
53.5,53.55080032,466.646759,457.0890198,462.8703613
53.75,53.79639816,466.6430969,457.0780029,462.8615112
54,54.05059814,466.626709,457.0648193,462.8471375
54.25,54.30020142,466.6277771,457.0602417,462.8488159
54.5,54.5481987,466.6367188,457.0714722,462.8556519
54.75,54.79840088,466.6178284,457.0552673,462.8362122
55,55.05080032,466.6556396,457.09021,462.8753357
55.25,55.30139923,466.6262512,457.0646057,462.844574
55.5,55.55020142,466.6374817,457.0759888,462.8555298
55.75,55.79679871,466.6086121,457.045105,462.8312683
56,56.05279922,466.6218262,457.0511169,462.84021
56.25,56.29959869,467.470459,457.0161743,463.6811218
56.5,56.54840088,467.5845947,456.6282654,463.7964478
56.75,56.79719925,467.5357666,456.3096619,463.7457581
57,57.05160141,467.493927,456.1371155,463.7045288
57.25,57.30099869,467.4388428,455.9811096,463.6507568
57.5,57.55039978,467.440094,455.8963623,463.6511536
57.75,57.79959869,467.4052734,455.7767334,463.6169434
58,58.05120087,467.3787842,455.671875,463.5904846
58.25,58.29959869,467.3921814,455.6185608,463.6078186
58.5,58.55039978,467.3704834,455.5248108,463.5847168
58.75,58.79919815,467.4205627,455.5287781,463.6308594
59,59.04980087,467.4410706,455.5031128,463.6499023
59.25,59.29859924,467.4426575,455.4726563,463.6564026
59.5,59.5481987,467.4702148,455.4689941,463.6812744
59.75,59.7981987,467.4633789,455.4509888,463.6747131
60,60.04880142,467.4891968,455.4578552,463.6984558
60.25,60.30080032,467.5020752,455.4651184,463.7125549
60.5,60.54919815,467.5146179,455.4767151,463.7243652
60.75,60.79719925,467.4906921,455.449585,463.7016602
61,61.05080032,467.5259094,455.4849243,463.7340698
61.25,61.29919815,467.5191345,455.4833069,463.7287598
61.5,61.54959869,467.5258179,455.4822998,463.7336121
61.75,61.79779816,467.4877625,455.4586792,463.6960449
62,62.04940033,467.5517883,455.5222778,463.7619934
62.25,62.29899979,467.4866943,455.4604797,463.6965027
62.5,62.55199814,467.488678,455.4689331,463.6991882
62.75,62.79899979,467.5000305,455.4822083,463.7096558
63,63.05220032,467.480072,455.4639893,463.6905212
63.25,63.29899979,467.5490723,455.5345764,463.7608032
63.5,63.55099869,467.4247742,455.381958,463.6335754
63.75,63.79980087,466.9268799,455.0967407,463.1451416
64,64.04920197,466.523407,454.8173523,462.7436218
64.25,64.29840088,466.4358215,454.7459412,462.6610718
64.5,64.55020142,466.241394,454.4792786,462.4685974
64.75,64.79620361,466.1012878,454.2124939,462.329834
65,65.05000305,466.0773926,454.0233459,462.3054504
65.25,65.29660034,466.0405273,453.8410645,462.2698669
65.5,65.5515976,465.9486084,453.6062927,462.1798096
65.75,65.79820251,465.9471741,453.4844055,462.1773376
66,66.05079651,465.9436646,453.3591919,462.1728516
66.25,66.29779816,465.9520264,453.2767944,462.1831665
66.5,66.54920197,465.9804688,453.2266541,462.2131653
66.75,66.79759979,465.9879456,453.1775208,462.2188416
67,67.05079651,465.9789429,453.1184082,462.2089539
67.25,67.30000305,465.9940491,453.0979004,462.2232056
67.5,67.54840088,466.0470276,453.1132202,462.2735901
67.75,67.80000305,466.040741,453.0911865,462.2681274
68,68.05059814,466.0807495,453.1199951,462.3122253
68.25,68.30000305,466.0638733,453.0975952,462.295929
68.5,68.54779816,466.0775452,453.1038818,462.3074341
68.75,68.80139923,466.0683899,453.0890808,462.2962646
69,69.04820251,466.1116943,453.1416626,462.3408813
69.25,69.29679871,466.1081238,453.1285095,462.3347168
69.5,69.54859924,466.1007385,453.1346741,462.3334656
69.75,69.79679871,466.0873413,453.1261597,462.3173218
70,70.05180359,466.0771179,453.113739,462.3020935
70.25,70.30000305,466.0942383,453.1414185,462.3231506
70.5,70.54920197,466.0709534,453.1181335,462.302063
70.75,70.79820251,466.089386,453.1418457,462.321228
71,71.05039978,466.1711426,453.5428467,462.4052124
71.25,71.2990036,466.0082397,453.645813,462.2431335
71.5,71.55220032,465.9736938,453.7225647,462.2060852
71.75,71.79959869,465.9308777,453.7044983,462.1612244
72,72.04940033,465.924408,453.6902466,462.1538696
72.25,72.29940033,465.8644714,453.6276245,462.0990295
72.5,72.5510025,466.7008972,454.5166626,463.1716919
72.75,72.80079651,470.3110352,456.3362427,471.1879578
73,73.04979706,469.8476868,455.3591309,472.4404602
73.25,73.29840088,469.7015381,455.1990356,472.6794434
73.5,73.54959869,469.6107788,455.1334229,472.647522
73.75,73.79779816,469.6001282,455.0875854,472.6559753
74,74.04799652,469.5334778,454.9427795,472.6456604
74.25,74.30039978,469.4994812,454.8415527,472.6965637
74.5,74.54920197,469.5120544,454.7886658,472.8093872
74.75,74.79620361,469.4583435,454.6973877,472.851532
75,75.05039978,469.4055176,454.5987854,472.8937683
75.25,75.29959869,469.3341675,454.5045776,472.9079285
75.5,75.54920197,469.309082,454.4436951,472.9584656
75.75,75.79720306,469.2441711,454.3550415,472.9602661
76,76.04779816,469.1723633,454.2553406,472.9517822
76.25,76.3010025,469.1494141,454.193634,472.9759216
76.5,76.55059814,469.0982361,454.1205444,472.9627686
76.75,76.79620361,469.0880127,454.0798645,472.9765015
77,77.04799652,469.1132813,454.0743713,473.0317993
77.25,77.2990036,469.0854187,454.0128479,473.0220642
77.5,77.54799652,469.0667114,453.9660034,473.0185242
77.75,77.79920197,469.0444641,453.9194946,473.012085
78,78.0515976,469.0526123,453.9043274,473.0285339
78.25,78.30000305,468.993988,453.9863281,472.9705811
78.5,78.54879761,468.8537292,454.29776,472.9786072
78.75,78.79840088,468.6306458,454.3283081,473.0053406
79,79.04879761,468.4815063,454.2746887,473.008728
79.25,79.3010025,468.3627014,454.1763306,472.9481506
79.5,79.54820251,468.355896,454.1351624,472.9263306
79.75,79.79740143,468.3514709,454.0726318,472.8634033
80,80.05000305,468.374115,454.0226746,472.8142395
80.25,80.29820251,468.3987732,453.995697,472.7649231
80.5,80.54660034,468.4632568,453.9863586,472.7467651
80.75,80.79859924,468.4686584,453.943573,472.6830139
81,81.05020142,468.5133362,453.9476929,472.6646118
81.25,81.29699707,468.536377,453.934967,472.6389465
81.5,81.54920197,468.6089478,453.9902039,472.6702881
81.75,81.79959869,468.6298218,454.0030518,472.6654358
82,82.04759979,468.6358948,453.9993591,472.6489563
82.25,82.29920197,468.6824951,454.0506897,472.6830139
82.5,82.54920197,468.6599426,454.0328979,472.6452942
82.75,82.79679871,468.6725464,454.0561829,472.6592712
83,83.05139923,468.6691589,454.061676,472.6531067
83.25,83.2990036,468.701355,454.1054382,472.6864624
83.5,83.55120087,468.6263123,454.0453491,472.6151428
83.75,83.79820251,468.6888428,454.1160889,472.6836853
84,84.04879761,468.6887817,454.1241455,472.6845093
84.25,84.29640198,468.688385,454.1255493,472.684845
84.5,84.54699707,468.6757202,454.1246643,472.6768799
84.75,84.80020142,468.6694946,454.1247864,472.6731873
85,85.04920197,468.6733704,454.1278381,472.6793518
85.25,85.29720306,468.7090454,454.1672363,472.713623
85.5,85.54779816,468.6936035,454.1565552,472.7048645
85.75,85.79599762,467.1896362,451.9487305,471.9066467
86,86.04840088,467.2213135,451.2411194,472.5578613
86.25,86.29799652,467.2690735,451.1138,472.7020569
86.5,86.55000305,467.252594,451.1545715,472.6517944
86.75,86.79799652,467.2614746,451.2458801,472.6355591
87,87.05000305,467.2872925,451.348175,472.6755981
87.25,87.29940033,467.3462219,451.469635,472.7399902
87.5,87.55200195,467.2686157,451.4528809,472.688446
87.75,87.79859924,467.2513428,451.4830322,472.6872864
88,88.04779816,467.2323914,451.5045776,472.6852112
88.25,88.30020142,467.2219543,451.5270386,472.684845
88.5,88.54820251,467.2381287,451.5632629,472.708313
88.75,88.79640198,467.1963196,451.5347595,472.6666565
89,89.04660034,467.1719055,451.5201111,472.636322
89.25,89.29820251,467.216095,451.572998,472.6859436
89.5,89.54820251,467.1987,451.5677795,472.661499
89.75,89.79599762,467.2381897,451.6161194,472.6929932
90,90.05000305,467.2398682,451.6145325,472.6844177
90.25,90.29979706,467.2756042,451.6535645,472.7148132
90.5,90.54959869,467.2266846,451.6016541,472.659729
90.75,90.79840088,467.1673279,451.5424805,472.5932922
91,91.04920197,467.2348633,451.6124878,472.6496582
91.25,91.29640198,467.2538147,451.6303711,472.6631775
91.5,91.54920197,467.2593384,451.6367188,472.661438
91.75,91.79620361,467.2683105,451.6495056,472.6715393
92,92.04840088,467.2479553,451.6291809,472.6450195
92.25,92.29799652,467.2716675,451.6541748,472.665802
92.5,92.54859924,467.2306519,451.6113586,472.6201782
92.75,92.79599762,467.2555237,451.6364136,472.6466675
