Time, Timer, measurement1.Three-phase Meter1.VLn_RMS, measurement2.Three-phase Meter2.VLn_RMS, measurement3.Three-phase Meter3.VLn_RMS
0.25, 0.30300000309944153, 437.3574523925781, 434.0114440917969, 433.6206359863281
0.5, 0.5619999766349792, 659.7537231445312, 654.7431030273438, 654.1654663085938
0.75, 0.8023999929428101, 496.9325866699219, 493.1405334472656, 492.6993713378906
1.0, 1.0542000532150269, 401.4242858886719, 398.7194519042969, 398.4794006347656
1.25, 1.3029999732971191, 412.4701843261719, 409.3048400878906, 408.9356994628906
1.5, 1.5526000261306763, 772.5670776367188, 766.67578125, 765.9971313476562
1.75, 1.8032000064849854, 515.2098388671875, 511.33624267578125, 510.8540954589844
2.0, 2.051800012588501, 474.2919921875, 470.8036193847656, 470.2980041503906
2.25, 2.3041999340057373, 395.4645080566406, 392.5409240722656, 392.1166076660156
2.5, 2.55679988861084, 618.7481689453125, 613.3929443359375, 612.4985961914062
2.75, 2.8034000396728516, 526.144775390625, 522.3566284179688, 521.7595825195312
3.0, 3.053999900817871, 475.9467468261719, 472.5164489746094, 471.97406005859375
3.25, 3.303800106048584, 381.32391357421875, 378.5296936035156, 378.1030578613281
3.5, 3.554800033569336, 465.17694091796875, 461.7907409667969, 461.27508544921875
3.75, 3.8034000396728516, 539.63720703125, 535.764404296875, 535.151123046875
4.0, 4.052800178527832, 477.5595703125, 474.1250305175781, 473.5796813964844
4.25, 4.301400184631348, 365.3717041015625, 362.85186767578125, 362.44970703125
4.5, 4.551400184631348, 462.5512390136719, 459.208740234375, 458.6964416503906
4.75, 4.803800106048584, 556.8231811523438, 552.6822509765625, 552.05224609375
5.0, 5.061200141906738, 478.11322021484375, 474.6450500488281, 474.1012268066406
5.25, 5.302199840545654, 338.7539978027344, 336.43505859375, 336.07470703125
5.5, 5.554599761962891, 461.0157470703125, 457.69671630859375, 457.1834411621094
5.75, 5.803199768066406, 577.8603515625, 573.5282592773438, 572.8804931640625
6.0, 6.054800033569336, 480.62945556640625, 477.1344299316406, 476.5879211425781
6.25, 6.3024001121521, 316.64599609375, 314.5811767578125, 314.2083740234375
6.5, 6.556600093841553, 457.6905517578125, 454.3878173828125, 453.8789367675781
6.75, 6.803800106048584, 595.714599609375, 591.232177734375, 590.5662841796875
7.0, 7.052000045776367, 482.7809143066406, 479.2833251953125, 478.73297119140625
7.25, 7.32919979095459, 343.3487548828125, 341.0213317871094, 340.6377868652344
7.5, 7.628799915313721, 465.28704833984375, 461.93157958984375, 461.4136962890625
7.75, 7.803599834442139, 615.700927734375, 611.02490234375, 610.3496704101562
8.0, 8.052800178527832, 485.3100280761719, 481.7799377441406, 481.225830078125
8.25, 8.300800323486328, 286.51678466796875, 284.6748962402344, 284.3548278808594
8.5, 8.550600051879883, 453.3316650390625, 450.06793212890625, 449.57025146484375
8.75, 8.803799629211426, 628.407958984375, 623.6109619140625, 622.9268188476562
9.0, 9.099200248718262, 479.72772216796875, 476.2470397949219, 475.6988220214844
9.25, 9.300800323486328, 270.559326171875, 268.8774108886719, 268.5588073730469
9.5, 9.555399894714355, 450.9532165527344, 447.7004089355469, 447.2056579589844
9.75, 9.802599906921387, 620.553466796875, 615.8445434570312, 615.1612548828125
10.0, 10.065999984741211, 485.673583984375, 482.1385192871094, 481.58648681640625
10.25, 10.300200462341309, 253.44296264648438, 251.86370849609375, 251.5705108642578
10.5, 10.556400299072266, 448.5703125, 445.345458984375, 444.8525085449219
10.75, 10.802800178527832, 644.3184814453125, 639.4035034179688, 638.6990356445312
11.0, 11.052200317382812, 492.0931396484375, 488.50970458984375, 487.9449768066406
11.25, 11.303199768066406, 251.5175323486328, 250.03907775878906, 249.7057647705078
11.5, 11.732399940490723, 813.2364501953125, 806.6736450195312, 805.85595703125
11.75, 11.84280014038086, 624.351806640625, 619.6063232421875, 618.92431640625
12.0, 12.051199913024902, 496.6419677734375, 493.0090026855469, 492.4416198730469
12.25, 12.303999900817871, 231.10400390625, 229.8291778564453, 229.52157592773438
12.5, 12.55620002746582, 445.0513000488281, 441.853515625, 441.3612976074219
12.75, 12.802800178527832, 690.4388427734375, 685.0706787109375, 684.34521484375
13.0, 13.052599906921387, 494.9156188964844, 491.2965393066406, 490.7327880859375
13.25, 13.303400039672852, 211.88134765625, 210.74903869628906, 210.45433044433594
13.5, 13.552599906921387, 442.1999816894531, 439.0168762207031, 438.5315856933594
13.75, 13.801600456237793, 708.4093017578125, 702.8457641601562, 702.106201171875
14.0, 14.054200172424316, 497.5102233886719, 493.87518310546875, 493.30548095703125
14.25, 14.301600456237793, 190.396240234375, 189.4353485107422, 189.1524200439453
14.5, 14.559000015258789, 438.9673767089844, 435.8116455078125, 435.3319396972656
14.75, 14.804200172424316, 729.3607177734375, 723.6637573242188, 722.90673828125
15.0, 15.053400039672852, 500.37060546875, 496.71124267578125, 496.13702392578125
15.25, 15.301799774169922, 202.9192657470703, 201.91107177734375, 201.62290954589844
15.5, 15.551600456237793, 439.9388427734375, 436.7738342285156, 436.2947082519531
15.75, 15.801600456237793, 718.087158203125, 712.4716796875, 711.7239990234375
16.0, 16.049800872802734, 498.6965026855469, 495.0478515625, 494.4762268066406
16.25, 16.303800582885742, 215.57920837402344, 214.3678436279297, 214.09349060058594
16.5, 16.552200317382812, 437.4063415527344, 434.2725830078125, 433.7953186035156
16.75, 16.800399780273438, 738.8290405273438, 732.9846801757812, 732.2166748046875
17.0, 17.050199508666992, 501.6331481933594, 497.97869873046875, 497.40313720703125
17.25, 17.30139923095703, 225.7197723388672, 224.45216369628906, 224.14797973632812
17.5, 17.550199508666992, 437.9728088378906, 434.8207092285156, 434.3429870605469
17.75, 17.803199768066406, 709.8863525390625, 704.3118896484375, 703.5712890625
18.0, 18.05419921875, 502.31719970703125, 498.6470947265625, 498.0714111328125
18.25, 18.30139923095703, 189.60691833496094, 188.61575317382812, 188.35028076171875
18.5, 18.553600311279297, 433.0795593261719, 429.9732666015625, 429.50091552734375
18.75, 18.80299949645996, 730.3848876953125, 724.6804809570312, 723.9161987304688
19.0, 19.050800323486328, 505.56097412109375, 501.8616027832031, 501.2804260253906
19.25, 19.302400588989258, 184.28466796875, 183.3402862548828, 183.07858276367188
19.5, 19.554399490356445, 437.91741943359375, 434.7733459472656, 434.29119873046875
19.75, 19.802400588989258, 735.5711669921875, 729.783203125, 729.0136108398438
20.0, 20.051799774169922, 500.9168701171875, 497.24847412109375, 496.6747131347656
20.25, 20.301799774169922, 179.85250854492188, 178.60699462890625, 178.343017578125
20.5, 20.549800872802734, 431.1559753417969, 427.9932556152344, 427.52325439453125
20.75, 20.80340003967285, 739.5881958007812, 734.1732788085938, 733.4015502929688
21.0, 21.05419921875, 501.62384033203125, 498.0191650390625, 497.4424743652344
21.25, 21.304000854492188, 175.6166229248047, 174.42919921875, 174.1621551513672
21.5, 21.55299949645996, 436.42938232421875, 433.239990234375, 432.763427734375
21.75, 21.804000854492188, 744.5159912109375, 739.091552734375, 738.3201904296875
22.0, 22.052600860595703, 502.2313232421875, 498.6244812011719, 498.0473937988281
22.25, 22.302400588989258, 171.47503662109375, 170.32565307617188, 170.0639190673828
22.5, 22.55459976196289, 435.76092529296875, 432.57232666015625, 432.0968933105469
22.75, 22.80299949645996, 749.6444702148438, 744.1907958984375, 743.4144287109375
23.0, 23.05299949645996, 502.911865234375, 499.2969970703125, 498.718505859375
23.25, 23.301599502563477, 201.41217041015625, 199.95372009277344, 199.6999053955078
23.5, 23.550399780273438, 434.9440612792969, 431.76263427734375, 431.2886962890625
23.75, 23.802600860595703, 719.2546997070312, 714.0441284179688, 713.2794189453125
24.0, 24.05820083618164, 503.6376953125, 500.0185852050781, 499.4393615722656
24.25, 24.301799774169922, 213.60597229003906, 212.08570861816406, 211.79542541503906
24.5, 24.552799224853516, 435.80413818359375, 432.6123352050781, 432.1358947753906
24.75, 24.803199768066406, 707.9312744140625, 702.7660522460938, 702.0245361328125
25.0, 25.052400588989258, 501.9231262207031, 498.3190612792969, 497.7435302734375
25.25, 25.29960060119629, 192.70965576171875, 191.30682373046875, 191.03707885742188
25.5, 25.551799774169922, 433.53497314453125, 430.359130859375, 429.8858337402344
25.75, 25.803800582885742, 728.0457763671875, 722.7392578125, 721.9789428710938
26.0, 26.052200317382812, 505.0738220214844, 501.4417724609375, 500.8616027832031
26.25, 26.30120086669922, 187.15980529785156, 185.81610107421875, 185.5523681640625
26.5, 26.555200576782227, 438.3340148925781, 435.129150390625, 434.64642333984375
26.75, 26.803800582885742, 732.562744140625, 727.2001342773438, 726.4322509765625
27.0, 27.05340003967285, 500.5682678222656, 496.9705505371094, 496.39691162109375
27.25, 27.302000045776367, 182.35459899902344, 181.0740203857422, 180.81228637695312
27.5, 27.556400299072266, 437.50421142578125, 434.2934875488281, 433.8162841796875
27.75, 27.80340003967285, 737.39892578125, 731.9969482421875, 731.2249145507812
28.0, 28.051799774169922, 501.26446533203125, 497.6611633300781, 497.08453369140625
28.25, 28.30299949645996, 177.9002227783203, 176.6856689453125, 176.41781616210938
28.5, 28.555999755859375, 436.75152587890625, 433.5535583496094, 433.0758056640625
28.75, 28.803800582885742, 743.2617797851562, 737.8278198242188, 737.0590209960938
29.0, 29.050800323486328, 501.6907958984375, 498.0881042480469, 497.5118103027344
29.25, 29.302799224853516, 173.5142364501953, 172.3541259765625, 172.08775329589844
29.5, 29.553600311279297, 436.0221252441406, 432.8291931152344, 432.3521423339844
29.75, 29.803800582885742, 712.4561157226562, 707.2782592773438, 706.5225219726562
30.0, 30.051799774169922, 502.5660705566406, 498.9568176269531, 498.37939453125
30.25, 30.300199508666992, 168.81515502929688, 167.68678283691406, 167.42626953125
30.5, 30.550600051879883, 435.28955078125, 432.0957336425781, 431.6208190917969
30.75, 30.80299949645996, 716.8013916015625, 711.5944213867188, 710.8434448242188
31.0, 31.054000854492188, 503.2281494140625, 499.60748291015625, 499.0287170410156
31.25, 31.30139923095703, 215.65684509277344, 214.1122283935547, 213.82191467285156
31.5, 31.551799774169922, 436.4099426269531, 433.208740234375, 432.73150634765625
31.75, 31.800399780273438, 721.3425903320312, 716.1018676757812, 715.3469848632812
32.0, 32.05179977416992, 503.92236328125, 500.29864501953125, 499.7196960449219
32.25, 32.29899978637695, 193.48788452148438, 192.00454711914062, 191.81448364257812
32.5, 32.55179977416992, 433.501708984375, 430.2796325683594, 429.8508605957031
32.75, 32.80160140991211, 726.9656372070312, 721.5444946289062, 720.9110107421875
33.0, 33.05379867553711, 499.68109130859375, 495.9418640136719, 495.5094909667969
33.25, 33.30160140991211, 205.6943817138672, 204.14321899414062, 203.94142150878906
33.5, 33.54999923706055, 434.3551940917969, 431.0839538574219, 430.70208740234375
33.75, 33.80179977416992, 730.1325073242188, 724.6656494140625, 724.0421142578125
34.0, 34.053001403808594, 500.3385925292969, 496.6414489746094, 496.158935546875
34.25, 34.299800872802734, 183.6885223388672, 182.29086303710938, 182.0824432373047
34.5, 34.55120086669922, 437.4315490722656, 434.14227294921875, 433.7264099121094
34.75, 34.803199768066406, 753.2119750976562, 747.5594482421875, 746.8958740234375
35.0, 35.051998138427734, 503.09454345703125, 499.26141357421875, 498.8128356933594
35.25, 35.30179977416992, 161.72900390625, 160.4547882080078, 160.2916259765625
35.5, 35.550201416015625, 433.7937316894531, 430.4684143066406, 430.0804748535156
35.75, 35.802398681640625, 776.2586669921875, 770.34814453125, 769.6699829101562
36.0, 36.05400085449219, 506.9022216796875, 503.1155700683594, 502.61993408203125
36.25, 36.30179977416992, 127.0797348022461, 126.45880126953125, 126.22544860839844
36.5, 36.551998138427734, 427.1168212890625, 424.06268310546875, 423.600341796875
36.75, 36.80139923095703, 763.5540771484375, 757.5577392578125, 756.7813110351562
37.0, 37.05139923095703, 510.8744812011719, 507.1224365234375, 506.54022216796875
37.25, 37.303001403808594, 152.21746826171875, 151.64244079589844, 151.34925842285156
37.5, 37.55580139160156, 425.8240661621094, 422.7923889160156, 422.32330322265625
37.75, 37.802398681640625, 788.8435668945312, 782.5502319335938, 781.7677612304688
38.0, 38.05339813232422, 514.434326171875, 510.6566467285156, 510.068359375
38.25, 38.29999923706055, 134.29833984375, 134.0999298095703, 133.83135986328125
38.5, 38.55220031738281, 421.44036865234375, 418.4375915527344, 417.9779052734375
38.75, 38.80220031738281, 795.4874877929688, 789.1989135742188, 788.4163208007812
39.0, 39.05139923095703, 515.881591796875, 512.0917358398438, 511.5005187988281
39.25, 39.29999923706055, 129.6597900390625, 129.4933624267578, 129.21987915039062
39.5, 39.555599212646484, 427.59515380859375, 424.5498352050781, 424.07958984375
39.75, 39.8026008605957, 801.1338500976562, 794.8114624023438, 794.0206298828125
40.0, 40.05099868774414, 516.8401489257812, 513.0436401367188, 512.4525146484375
40.25, 40.30080032348633, 154.9669647216797, 154.38320922851562, 154.08348083496094
40.5, 40.55699920654297, 431.8313903808594, 428.74407958984375, 428.267333984375
40.75, 40.80179977416992, 785.73291015625, 779.430419921875, 778.652099609375
41.0, 41.052799224853516, 508.0240478515625, 504.3027038574219, 503.72259521484375
41.25, 41.299400329589844, 136.70326232910156, 136.05914306640625, 135.7935028076172
41.5, 41.55059814453125, 429.0533752441406, 425.9139099121094, 425.5198059082031
41.75, 41.80379867553711, 810.0982055664062, 804.0593872070312, 802.780029296875
42.0, 42.05379867553711, 508.0986328125, 504.9599609375, 503.88427734375
42.25, 42.3026008605957, 267.91217041015625, 265.23052978515625, 265.56591796875
42.5, 42.555999755859375, 457.73797607421875, 456.10211181640625, 453.8798522949219
42.75, 42.80120086669922, 630.0985717773438, 629.072998046875, 624.779052734375
43.0, 43.053001403808594, 486.5743713378906, 485.3604736328125, 482.4283752441406
43.25, 43.299198150634766, 385.7294616699219, 385.0938720703125, 382.4231872558594
43.5, 43.5526008605957, 805.1885986328125, 799.7421264648438, 797.9163818359375
43.75, 43.80400085449219, 519.5181884765625, 520.800048828125, 515.0717163085938
44.0, 44.052799224853516, 246.04347229003906, 246.17071533203125, 243.8734893798828
44.25, 44.300201416015625, 452.6322021484375, 454.06378173828125, 448.78448486328125
44.5, 44.55139923095703, 618.6312255859375, 623.3443603515625, 613.4212036132812
44.75, 44.802398681640625, 480.8847961425781, 484.9143371582031, 476.80487060546875
45.0, 45.053001403808594, 394.01202392578125, 396.1526794433594, 390.64190673828125
45.25, 45.30099868774414, 884.9034423828125, 881.8477172851562, 877.2691040039062
45.5, 45.55080032348633, 520.9608154296875, 527.9332885742188, 516.47607421875
45.75, 45.80339813232422, 187.3922119140625, 197.42506408691406, 185.7293701171875
46.0, 46.05220031738281, 442.9339904785156, 447.7410888671875, 439.1021728515625
46.25, 46.301998138427734, 685.136962890625, 693.3196411132812, 679.2559814453125
46.5, 46.55339813232422, 487.5515441894531, 494.923583984375, 483.3365783691406
46.75, 46.803199768066406, 300.0942687988281, 303.13104248046875, 297.45599365234375
47.0, 47.05080032348633, 456.3572082519531, 462.31982421875, 452.4685363769531
47.25, 47.3036003112793, 615.1867065429688, 625.0729370117188, 609.9924926757812
47.5, 47.55179977416992, 479.5640563964844, 487.0169372558594, 475.5033874511719
47.75, 47.80080032348633, 349.8007507324219, 353.4171447753906, 346.784423828125
48.0, 48.058799743652344, 462.2789611816406, 468.19488525390625, 458.3124694824219
48.25, 48.30039978027344, 572.5914306640625, 581.7025756835938, 567.671630859375
48.5, 48.55139923095703, 475.1092224121094, 482.1176452636719, 471.01116943359375
48.75, 48.80099868774414, 385.88116455078125, 390.1568298339844, 382.5284118652344
49.0, 49.05139923095703, 466.2922668457031, 472.1148986816406, 462.2712707519531
49.25, 49.30039978027344, 541.3823852539062, 538.625, 536.7273559570312
49.5, 49.55339813232422, 442.8465270996094, 455.4749755859375, 439.448974609375
49.75, 49.802398681640625, 420.6335754394531, 425.6377258300781, 417.0358581542969
50.0, 50.05139923095703, 866.4559936523438, 875.646728515625, 859.4111938476562
50.25, 50.30039978027344, 511.5022277832031, 519.2190551757812, 507.1868896484375
50.5, 50.55039978027344, 157.0979461669922, 180.249267578125, 155.8955841064453
50.75, 50.8036003112793, 436.9750671386719, 442.0572204589844, 433.270751953125
51.0, 51.0526008605957, 758.4088134765625, 766.046142578125, 752.048095703125
51.25, 51.30160140991211, 497.5133056640625, 504.904541015625, 493.3107604980469
51.5, 51.54999923706055, 223.92327880859375, 228.5288543701172, 222.010986328125
51.75, 51.80220031738281, 448.3448486328125, 453.6531982421875, 444.5428466796875
52.0, 52.053199768066406, 653.98388671875, 662.491943359375, 648.4983520507812
52.25, 52.30099868774414, 487.0567626953125, 494.3363952636719, 482.94195556640625
52.5, 52.55039978027344, 316.7953796386719, 320.3028564453125, 314.0564880371094
52.75, 52.801998138427734, 456.3703918457031, 462.00030517578125, 452.5077819824219
53.0, 53.05379867553711, 603.1390991210938, 611.7332763671875, 598.0697631835938
53.25, 53.302799224853516, 480.85626220703125, 487.8241271972656, 476.786865234375
53.5, 53.55080032348633, 361.3934631347656, 365.4472351074219, 358.285888671875
53.75, 53.80379867553711, 461.7767333984375, 467.5611877441406, 457.8703918457031
54.0, 54.0526008605957, 570.0994873046875, 578.7227172851562, 565.306640625
54.25, 54.30139923095703, 476.6750793457031, 483.6204833984375, 472.63873291015625
54.5, 54.55059814453125, 391.4705505371094, 394.7831115722656, 390.51300048828125
54.75, 54.80220031738281, 468.25750732421875, 474.2762145996094, 470.4320983886719
55.0, 55.051998138427734, 315.2063903808594, 321.3675842285156, 315.1112060546875
55.25, 55.302799224853516, 460.3547668457031, 465.572509765625, 459.9564208984375
55.5, 55.5526008605957, 226.88548278808594, 249.80958557128906, 228.36065673828125
55.75, 55.803001403808594, 444.9478454589844, 450.4078369140625, 443.7430419921875
56.0, 56.05339813232422, 303.20404052734375, 370.7727355957031, 309.8253173828125
56.25, 56.300201416015625, 426.0638732910156, 431.3077392578125, 425.1407775878906
56.5, 56.549400329589844, 1131.771484375, 1142.78271484375, 1122.10205078125
56.75, 56.803199768066406, 398.6416320800781, 404.01324462890625, 398.46868896484375
57.0, 57.052799224853516, 464.4360656738281, 609.4901123046875, 602.4036865234375
57.25, 57.3036003112793, 350.90802001953125, 356.4015808105469, 353.15045166015625
57.5, 57.55440139770508, 460.0323486328125, 465.993408203125, 462.307861328125
57.75, 57.80120086669922, 292.7934875488281, 298.5870056152344, 301.58245849609375
58.0, 58.053199768066406, 452.2193603515625, 457.9714050292969, 455.0344543457031
58.25, 58.30179977416992, 226.11338806152344, 238.19154357910156, 253.47511291503906
58.5, 58.55619812011719, 440.3461608886719, 445.9205627441406, 443.5184326171875
58.75, 58.80080032348633, 728.1708984375, 765.8416137695312, 761.5400390625
59.0, 59.05339813232422, 418.40643310546875, 423.7052001953125, 421.53326416015625
59.25, 59.30220031738281, 1116.672119140625, 1097.1461181640625, 1037.004150390625
59.5, 59.552799224853516, 375.4741516113281, 380.2980041503906, 379.1528015136719
59.75, 59.803001403808594, 461.8760681152344, 467.36297607421875, 466.4070129394531
60.0, 60.05339813232422, 294.1846618652344, 298.8338317871094, 304.36578369140625
