Time, Timer, measurement1.Three-phase Meter1.VLn_RMS, measurement2.Three-phase Meter2.VLn_RMS, measurement3.Three-phase Meter3.VLn_RMS
0.25, 0.30300000309944153, 470.32135009765625, 466.7337951660156, 466.3060302734375
0.5, 0.5691999793052673, 469.67572021484375, 466.0887756347656, 465.6615295410156
0.75, 0.8348000049591064, 469.7279968261719, 466.13568115234375, 465.7084045410156
1.0, 1.0853999853134155, 469.7277526855469, 466.142822265625, 465.715576171875
1.25, 1.3467999696731567, 469.70904541015625, 466.1227722167969, 465.6955261230469
1.5, 1.5951999425888062, 469.7508544921875, 466.1634216308594, 465.73614501953125
1.75, 1.8437999486923218, 470.50286865234375, 466.9729919433594, 466.5065612792969
2.0, 2.089600086212158, 470.14263916015625, 466.6954650878906, 466.1833801269531
2.25, 2.3350000381469727, 470.0484619140625, 466.6299133300781, 466.1028137207031
2.5, 2.5878000259399414, 469.9979248046875, 466.58184814453125, 466.04974365234375
2.75, 2.8501999378204346, 469.9934997558594, 466.5799255371094, 466.0462951660156
3.0, 3.1185998916625977, 470.0090026855469, 466.59124755859375, 466.0556945800781
3.25, 3.3501999378204346, 470.0086975097656, 466.59600830078125, 466.06158447265625
3.5, 3.600600004196167, 470.0163269042969, 466.60614013671875, 466.071533203125
3.75, 3.8501999378204346, 469.9922790527344, 466.5811767578125, 466.0466613769531
4.0, 4.10699987411499, 470.0248107910156, 466.6104431152344, 466.0757751464844
4.25, 4.349599838256836, 469.976806640625, 466.5674743652344, 466.03289794921875
4.5, 4.610199928283691, 470.03759765625, 466.6236267089844, 466.08892822265625
4.75, 4.850599765777588, 470.0228576660156, 466.6112365722656, 466.0766296386719
5.0, 5.099999904632568, 470.0193786621094, 466.6078186035156, 466.07318115234375
5.25, 5.350200176239014, 470.077880859375, 466.666748046875, 466.13214111328125
5.5, 5.609799861907959, 470.0260314941406, 466.6107177734375, 466.07611083984375
5.75, 5.855199813842773, 470.0543212890625, 466.642333984375, 466.1077575683594
6.0, 6.106200218200684, 470.07476806640625, 466.6612854003906, 466.1266784667969
6.25, 6.357999801635742, 470.0433349609375, 466.62786865234375, 466.0933532714844
6.5, 6.6082000732421875, 470.0299987792969, 466.6135559082031, 466.07904052734375
6.75, 6.857999801635742, 470.0479736328125, 466.63165283203125, 466.0971984863281
7.0, 7.105999946594238, 470.09881591796875, 466.6868591308594, 466.15228271484375
7.25, 7.350200176239014, 470.1022033691406, 466.6878967285156, 466.1533508300781
7.5, 7.609799861907959, 470.064208984375, 466.6497802734375, 466.1151428222656
7.75, 7.857999801635742, 470.0545349121094, 466.63873291015625, 466.1041564941406
8.0, 8.103400230407715, 470.0704345703125, 466.6552429199219, 466.12060546875
8.25, 8.358599662780762, 470.0820617675781, 466.666015625, 466.13140869140625
8.5, 8.605799674987793, 470.1040954589844, 466.6878967285156, 466.1531982421875
8.75, 8.848999977111816, 470.10919189453125, 466.69384765625, 466.1592712402344
9.0, 9.106599807739258, 470.10382080078125, 466.6897277832031, 466.1551208496094
9.25, 9.34939956665039, 470.1045227050781, 466.6919860839844, 466.157470703125
9.5, 9.600799560546875, 470.05584716796875, 466.6434326171875, 466.10894775390625
9.75, 9.849800109863281, 470.0508117675781, 466.6390075683594, 466.10455322265625
10.0, 10.099599838256836, 470.0685729980469, 466.6557922363281, 466.1212463378906
10.25, 10.352999687194824, 470.07855224609375, 466.6651611328125, 466.13067626953125
10.5, 10.608599662780762, 470.100830078125, 466.68536376953125, 466.15081787109375
10.75, 10.856200218200684, 470.0949401855469, 466.6766052246094, 466.14202880859375
11.0, 11.099800109863281, 470.08831787109375, 466.6728210449219, 466.1382141113281
11.25, 11.3548002243042, 470.0987243652344, 466.6855773925781, 466.1509704589844
11.5, 11.607199668884277, 470.0948181152344, 466.68255615234375, 466.1479187011719
11.75, 11.850600242614746, 470.1087341308594, 466.695556640625, 466.1609191894531
12.0, 12.107600212097168, 470.09307861328125, 466.67791748046875, 466.1432800292969
12.25, 12.354000091552734, 470.1046142578125, 466.6938171386719, 466.1592102050781
12.5, 12.609600067138672, 470.08770751953125, 466.673828125, 466.1391906738281
12.75, 12.855600357055664, 469.47711181640625, 466.0706787109375, 465.5362243652344
13.0, 13.10159969329834, 469.4900817871094, 466.08203125, 465.548095703125
13.25, 13.350000381469727, 469.4182434082031, 466.0080871582031, 465.475830078125
13.5, 13.60200023651123, 469.4344787597656, 466.0276794433594, 465.4941101074219
13.75, 13.855199813842773, 469.4559326171875, 466.0488586425781, 465.5152282714844
14.0, 14.100799560546875, 469.44281005859375, 466.0321960449219, 465.49853515625
14.25, 14.353799819946289, 469.42596435546875, 466.0182189941406, 465.4845886230469
14.5, 14.605400085449219, 469.4863586425781, 466.079345703125, 465.5456848144531
14.75, 14.855199813842773, 469.4851989746094, 466.07763671875, 465.5439453125
15.0, 15.108200073242188, 469.4669494628906, 466.0542297363281, 465.52044677734375
15.25, 15.357399940490723, 469.4483337402344, 466.04315185546875, 465.5093994140625
15.5, 15.605600357055664, 469.45074462890625, 466.0424499511719, 465.5086669921875
15.75, 15.850799560546875, 469.48724365234375, 466.0780334472656, 465.5442810058594
16.0, 16.100000381469727, 469.4905090332031, 466.0805358886719, 465.5467224121094
16.25, 16.356800079345703, 469.463623046875, 466.05535888671875, 465.5215148925781
16.5, 16.603200912475586, 469.4125061035156, 466.0057067871094, 465.47198486328125
16.75, 16.857799530029297, 469.4749450683594, 466.0698547363281, 465.5361633300781
17.0, 17.10099983215332, 469.438232421875, 466.0352783203125, 465.50164794921875
17.25, 17.358999252319336, 469.4621887207031, 466.0542907714844, 465.5206604003906
17.5, 17.608600616455078, 469.48077392578125, 466.0725402832031, 465.5389099121094
17.75, 17.84939956665039, 469.4681396484375, 466.06243896484375, 465.5287780761719
18.0, 18.10099983215332, 469.43487548828125, 466.0284118652344, 465.4948425292969
18.25, 18.349199295043945, 469.4724426269531, 466.0623474121094, 465.5286560058594
18.5, 18.600799560546875, 469.4551696777344, 466.0448913574219, 465.5111389160156
18.75, 18.848800659179688, 469.4620056152344, 466.0523986816406, 465.5186462402344
19.0, 19.106000900268555, 469.46002197265625, 466.0491943359375, 465.5154113769531
19.25, 19.35460090637207, 469.50225830078125, 466.09405517578125, 465.5602722167969
19.5, 19.608200073242188, 469.4864196777344, 466.07379150390625, 465.53997802734375
19.75, 19.850000381469727, 469.4634094238281, 466.0552673339844, 465.5215148925781
20.0, 20.105600357055664, 469.4699401855469, 466.06109619140625, 465.52728271484375
20.25, 20.354999542236328, 469.4976501464844, 466.08880615234375, 465.5550537109375
20.5, 20.600400924682617, 469.4783630371094, 466.0687255859375, 465.5350036621094
20.75, 20.84939956665039, 470.9271545410156, 467.50927734375, 466.97430419921875
21.0, 21.10759925842285, 470.76690673828125, 467.3501281738281, 466.8150634765625
21.25, 21.35759925842285, 470.807373046875, 467.3896179199219, 466.8544921875
21.5, 21.608800888061523, 470.74737548828125, 467.32977294921875, 466.79461669921875
21.75, 21.85540008544922, 470.7732238769531, 467.3546142578125, 466.81939697265625
22.0, 22.1018009185791, 470.7694091796875, 467.3533630371094, 466.8182067871094
22.25, 22.34939956665039, 470.7708435058594, 467.353759765625, 466.8185119628906
22.5, 22.60140037536621, 470.7569885253906, 467.34381103515625, 466.8086242675781
22.75, 22.850200653076172, 470.7875671386719, 467.3708801269531, 466.83551025390625
23.0, 23.100000381469727, 470.7734680175781, 467.3559875488281, 466.8206787109375
23.25, 23.349000930786133, 470.7586669921875, 467.3397521972656, 466.8044738769531
23.5, 23.603200912475586, 470.76708984375, 467.3509521484375, 466.8156433105469
23.75, 23.85740089416504, 470.7800598144531, 467.3610534667969, 466.8257141113281
24.0, 24.10580062866211, 470.761474609375, 467.3448791503906, 466.80963134765625
24.25, 24.35540008544922, 470.77880859375, 467.3594055175781, 466.8240966796875
24.5, 24.60580062866211, 470.7611083984375, 467.3445739746094, 466.8093566894531
24.75, 24.85420036315918, 470.7649841308594, 467.3497619628906, 466.8145751953125
25.0, 25.10059928894043, 470.7471008300781, 467.3330993652344, 466.7979431152344
25.25, 25.356800079345703, 470.7813720703125, 467.3595886230469, 466.8243713378906
25.5, 25.60420036315918, 470.76580810546875, 467.345703125, 466.81048583984375
25.75, 25.858400344848633, 470.7702331542969, 467.3492431640625, 466.8140563964844
26.0, 26.108400344848633, 470.77496337890625, 467.3507385253906, 466.8155822753906
26.25, 26.35759925842285, 470.7662048339844, 467.3493347167969, 466.8141174316406
26.5, 26.606399536132812, 470.7507629394531, 467.3292541503906, 466.7940673828125
26.75, 26.852399826049805, 470.74237060546875, 467.3231201171875, 466.78790283203125
27.0, 27.10099983215332, 470.78729248046875, 467.36962890625, 466.83428955078125
27.25, 27.350200653076172, 470.76593017578125, 467.34918212890625, 466.81390380859375
27.5, 27.60580062866211, 470.7834777832031, 467.365478515625, 466.8302001953125
27.75, 27.85759925842285, 470.768798828125, 467.3544616699219, 466.8191833496094
28.0, 28.108400344848633, 470.7687683105469, 467.3531799316406, 466.8179016113281
28.25, 28.350000381469727, 470.7664489746094, 467.3502502441406, 466.8150329589844
28.5, 28.60140037536621, 470.7890319824219, 467.3720397949219, 466.83685302734375
28.75, 28.848800659179688, 470.8556823730469, 467.4405822753906, 466.9053649902344
29.0, 29.105600357055664, 470.76251220703125, 467.34307861328125, 466.8079833984375
29.25, 29.356399536132812, 470.7799072265625, 467.361572265625, 466.8263854980469
29.5, 29.607799530029297, 470.72015380859375, 467.3023681640625, 466.7673034667969
29.75, 29.852399826049805, 470.8186340332031, 467.3976745605469, 466.8624267578125
30.0, 30.108400344848633, 470.77227783203125, 467.35491943359375, 466.81982421875
30.25, 30.350200653076172, 470.7828063964844, 467.3656921386719, 466.8304443359375
30.5, 30.609800338745117, 470.7588806152344, 467.33984375, 466.8046569824219
30.75, 30.857200622558594, 470.7543640136719, 467.335205078125, 466.7999572753906
31.0, 31.100799560546875, 470.7621154785156, 467.34295654296875, 466.8076477050781
31.25, 31.35379981994629, 470.7422180175781, 467.3221130371094, 466.7868957519531
31.5, 31.600400924682617, 470.7892150878906, 467.3697509765625, 466.83447265625
31.75, 31.856800079345703, 470.78900146484375, 467.3704833984375, 466.8351745605469
32.0, 32.10580062866211, 470.7809143066406, 467.3628234863281, 466.82757568359375
32.25, 32.35279846191406, 470.7926025390625, 467.3741760253906, 466.8388977050781
32.5, 32.60540008544922, 470.7245178222656, 467.3070373535156, 466.7718811035156
32.75, 32.850399017333984, 470.7755432128906, 467.36083984375, 466.8255920410156
33.0, 33.10260009765625, 470.7786560058594, 467.362060546875, 466.8268737792969
33.25, 33.357398986816406, 470.7761535644531, 467.3570861816406, 466.82196044921875
33.5, 33.600799560546875, 470.7789611816406, 467.3599548339844, 466.8246765136719
33.75, 33.849998474121094, 470.7759704589844, 467.357421875, 466.8222351074219
34.0, 34.09960174560547, 470.7487487792969, 467.33306884765625, 466.7978515625
34.25, 34.35820007324219, 470.7619323730469, 467.3453063964844, 466.8100280761719
34.5, 34.6068000793457, 470.78253173828125, 467.3648986816406, 466.82965087890625
34.75, 34.8489990234375, 470.7891845703125, 467.3713073730469, 466.83599853515625
35.0, 35.09920120239258, 470.7961120605469, 467.37823486328125, 466.8428649902344
35.25, 35.349998474121094, 470.75347900390625, 467.3363952636719, 466.8010559082031
35.5, 35.60020065307617, 470.7601623535156, 467.3418884277344, 466.8066101074219
35.75, 35.85300064086914, 470.7510986328125, 467.3343811035156, 466.79913330078125
36.0, 36.105201721191406, 470.736328125, 467.3178405761719, 466.7826232910156
36.25, 36.35060119628906, 470.74688720703125, 467.3306579589844, 466.79541015625
36.5, 36.60820007324219, 470.7662353515625, 467.3516845703125, 466.81646728515625
36.75, 36.856201171875, 470.7237548828125, 467.3063659667969, 466.7712097167969
37.0, 37.09920120239258, 470.78271484375, 467.36407470703125, 466.8289489746094
37.25, 37.354801177978516, 470.7813415527344, 467.3634948730469, 466.8283386230469
37.5, 37.60580062866211, 470.7568359375, 467.3395080566406, 466.8043212890625
37.75, 37.85020065307617, 470.7928771972656, 467.3701171875, 466.8348388671875
38.0, 38.114200592041016, 470.7810363769531, 467.3628845214844, 466.82763671875
38.25, 38.34859848022461, 470.7823791503906, 467.3625793457031, 466.8273010253906
38.5, 38.60900115966797, 470.78070068359375, 467.3607482910156, 466.825439453125
38.75, 38.85459899902344, 470.7525939941406, 467.3328552246094, 466.7975769042969
39.0, 39.1077995300293, 470.7623596191406, 467.34295654296875, 466.8075866699219
39.25, 39.357601165771484, 470.7651062011719, 467.3515930175781, 466.8162536621094
39.5, 39.59920120239258, 470.7425537109375, 467.32330322265625, 466.78802490234375
39.75, 39.84859848022461, 470.7916564941406, 467.3713073730469, 466.8360290527344
40.0, 40.100399017333984, 470.7940368652344, 467.3757019042969, 466.8404541015625
40.25, 40.34920120239258, 470.7337951660156, 467.31597900390625, 466.7808532714844
40.5, 40.600799560546875, 470.7588806152344, 467.33984375, 466.80462646484375
40.75, 40.8577995300293, 470.73529052734375, 467.3193054199219, 466.7841491699219
41.0, 41.10580062866211, 470.7798156738281, 467.3597106933594, 466.824462890625
41.25, 41.349998474121094, 470.7884826660156, 467.3677062988281, 466.8324890136719
41.5, 41.60940170288086, 470.7696838378906, 467.3503723144531, 466.81512451171875
41.75, 41.84939956665039, 470.7544860839844, 467.3348388671875, 466.7995910644531
42.0, 42.107200622558594, 470.75079345703125, 467.3301696777344, 466.7949523925781
42.25, 42.35540008544922, 470.77410888671875, 467.356201171875, 466.8208923339844
42.5, 42.60559844970703, 470.739013671875, 467.3206481933594, 466.785400390625
42.75, 42.85660171508789, 470.75390625, 467.33551025390625, 466.80023193359375
43.0, 43.10260009765625, 468.8979797363281, 465.4742126464844, 466.028076171875
43.25, 43.357601165771484, 474.7886047363281, 471.3608093261719, 475.3761901855469
43.5, 43.600399017333984, 474.4378662109375, 471.0008850097656, 475.61383056640625
43.75, 43.85860061645508, 474.5133972167969, 471.08709716796875, 475.4765319824219
44.0, 44.1077995300293, 474.7079162597656, 471.27392578125, 475.3002014160156
44.25, 44.350799560546875, 474.8583984375, 471.4228210449219, 475.1919250488281
44.5, 44.60279846191406, 474.94805908203125, 471.5049133300781, 475.1173095703125
44.75, 44.85139846801758, 474.98876953125, 471.5504150390625, 475.10858154296875
45.0, 45.1077995300293, 474.9539794921875, 471.5191345214844, 475.072265625
45.25, 45.35260009765625, 474.96392822265625, 471.52606201171875, 475.13665771484375
45.5, 45.60340118408203, 474.91754150390625, 471.47845458984375, 475.1773376464844
45.75, 45.855201721191406, 474.89508056640625, 471.4502258300781, 475.2373962402344
46.0, 46.10060119628906, 474.8512878417969, 471.413818359375, 475.2807312011719
46.25, 46.35260009765625, 474.8218994140625, 471.3819885253906, 475.3172302246094
46.5, 46.60580062866211, 474.7718505859375, 471.3312683105469, 475.3326721191406
46.75, 46.84939956665039, 474.7415771484375, 471.3015441894531, 475.3555908203125
47.0, 47.107398986816406, 474.73077392578125, 471.29058837890625, 475.3906555175781
47.25, 47.35540008544922, 474.6789855957031, 471.2435607910156, 475.3826904296875
47.5, 47.607398986816406, 474.671142578125, 471.2361755371094, 475.4026794433594
47.75, 47.84980010986328, 474.6707763671875, 471.239013671875, 475.42486572265625
48.0, 48.10419845581055, 474.65545654296875, 471.21746826171875, 475.41949462890625
48.25, 48.3577995300293, 474.6734619140625, 471.2366638183594, 475.44775390625
48.5, 48.601200103759766, 474.6755065917969, 471.23809814453125, 475.4568176269531
48.75, 48.850399017333984, 474.6590270996094, 471.219482421875, 475.43792724609375
49.0, 49.11040115356445, 474.6064147949219, 471.1686096191406, 475.38287353515625
49.25, 49.34880065917969, 474.6778259277344, 471.2404479980469, 475.4548034667969
49.5, 49.60260009765625, 474.6974182128906, 471.2567138671875, 475.4686279296875
49.75, 49.850799560546875, 474.65606689453125, 471.22088623046875, 475.4261779785156
50.0, 50.100799560546875, 474.67706298828125, 471.2339782714844, 475.4353332519531
50.25, 50.350799560546875, 474.6842956542969, 471.24713134765625, 475.4422302246094
50.5, 50.599998474121094, 474.6831970214844, 471.2424011230469, 475.4362487792969
50.75, 50.850399017333984, 474.69158935546875, 471.2514953613281, 475.441162109375
51.0, 51.100799560546875, 474.69256591796875, 471.2528991699219, 475.43841552734375
51.25, 51.34920120239258, 474.6798400878906, 471.24761962890625, 475.4299621582031
51.5, 51.60219955444336, 474.6794128417969, 471.2430725097656, 475.4223327636719
51.75, 51.85060119628906, 476.6193542480469, 473.25323486328125, 477.3201599121094
52.0, 52.10340118408203, 475.4850769042969, 474.26165771484375, 474.98883056640625
52.25, 52.349998474121094, 504.1984558105469, 545.2922973632812, 481.343505859375
52.5, 52.60060119628906, 472.5763244628906, 494.58935546875, 466.9466552734375
52.75, 52.850399017333984, 471.8533630371094, 481.46063232421875, 472.65625
53.0, 53.10060119628906, 472.2352294921875, 473.8254089355469, 474.30352783203125
53.25, 53.351600646972656, 473.0664367675781, 470.04522705078125, 475.2561340332031
53.5, 53.600799560546875, 479.64508056640625, 442.75250244140625, 493.4637145996094
53.75, 53.850799560546875, 475.8874206542969, 454.11114501953125, 478.3082275390625
54.0, 54.0989990234375, 476.23077392578125, 462.6065979003906, 476.16278076171875
54.25, 54.35060119628906, 476.125244140625, 466.3368835449219, 476.11932373046875
54.5, 54.600799560546875, 629.8671875, 659.7407836914062, 601.67919921875
54.75, 54.8489990234375, 471.3943786621094, 492.7389221191406, 462.4954528808594
55.0, 55.10100173950195, 473.5598449707031, 478.3933410644531, 474.8978271484375
55.25, 55.34920120239258, 473.81512451171875, 469.99981689453125, 476.82733154296875
55.5, 55.601600646972656, 474.2264709472656, 466.09405517578125, 477.029052734375
55.75, 55.85020065307617, 480.2908935546875, 436.34619140625, 496.19793701171875
56.0, 56.10100173950195, 476.4773254394531, 449.6825256347656, 479.75811767578125
56.25, 56.34859848022461, 476.5655822753906, 459.3628234863281, 477.19293212890625
56.5, 56.59960174560547, 476.2625732421875, 463.7733154296875, 477.0985107421875
56.75, 56.851200103759766, 484.82550048828125, 483.15008544921875, 481.29742431640625
57.0, 57.10260009765625, 470.6978454589844, 492.32763671875, 461.6899108886719
57.25, 57.35179901123047, 473.3917236328125, 478.73895263671875, 475.3976135253906
57.5, 57.60060119628906, 473.46697998046875, 470.0623474121094, 477.6316223144531
57.75, 57.850399017333984, 473.86419677734375, 465.50775146484375, 477.85931396484375
58.0, 58.100799560546875, 477.915771484375, 431.2060241699219, 497.1778259277344
58.25, 58.35240173339844, 476.0418395996094, 447.33270263671875, 480.98919677734375
58.5, 58.60100173950195, 476.2559509277344, 458.0019226074219, 477.7901611328125
58.75, 58.84920120239258, 475.966796875, 462.8526306152344, 477.5025634765625
59.0, 59.10319900512695, 475.75494384765625, 465.4788513183594, 477.8071594238281
59.25, 59.350799560546875, 469.88677978515625, 493.97113037109375, 459.0904235839844
59.5, 59.59960174560547, 473.2767333984375, 479.0750427246094, 475.49908447265625
59.75, 59.85020065307617, 473.3218688964844, 470.09393310546875, 477.8428039550781
