Time, Timer, measurement1.Three-phase Meter1.VLn_RMS, measurement2.Three-phase Meter2.VLn_RMS, measurement3.Three-phase Meter3.VLn_RMS
0.25, 0.3075999915599823, 470.6798095703125, 467.0851745605469, 466.6570129394531
0.5, 0.574400007724762, 468.7344665527344, 465.155029296875, 464.7285461425781
0.75, 0.8040000200271606, 468.7921142578125, 465.2117004394531, 464.7851257324219
1.0, 1.0543999671936035, 470.6690368652344, 467.0746765136719, 466.64642333984375
1.25, 1.306399941444397, 470.6378173828125, 467.04351806640625, 466.6153259277344
1.5, 1.5537999868392944, 470.6606140136719, 467.0645751953125, 466.6363830566406
1.75, 1.805400013923645, 471.5257873535156, 467.9842834472656, 467.5135498046875
2.0, 2.0571999549865723, 470.8657531738281, 467.398681640625, 466.8914794921875
2.25, 2.303999900817871, 470.95660400390625, 467.5223388671875, 466.99609375
2.5, 2.5541999340057373, 470.90960693359375, 467.4857482910156, 466.9532775878906
2.75, 2.8043999671936035, 470.90179443359375, 467.4822692871094, 466.947509765625
3.0, 3.0546000003814697, 470.90618896484375, 467.48675537109375, 466.9515380859375
3.25, 3.3043999671936035, 470.9030456542969, 467.484130859375, 466.94866943359375
3.5, 3.555799961090088, 470.9226989746094, 467.50347900390625, 466.96783447265625
3.75, 3.804800033569336, 470.96990966796875, 467.55047607421875, 467.0147399902344
4.0, 4.055600166320801, 470.9138488769531, 467.49481201171875, 466.95916748046875
4.25, 4.306600093841553, 470.97198486328125, 467.55169677734375, 467.0158996582031
4.5, 4.553999900817871, 471.001953125, 467.5806884765625, 467.0450134277344
4.75, 4.8043999671936035, 470.94189453125, 467.52288818359375, 466.9872741699219
5.0, 5.057000160217285, 470.9475402832031, 467.5275573730469, 466.9919128417969
5.25, 5.304999828338623, 470.9648742675781, 467.5454406738281, 467.0098571777344
5.5, 5.559000015258789, 470.95086669921875, 467.53155517578125, 466.9959716796875
5.75, 5.804800033569336, 470.9737854003906, 467.55438232421875, 467.0188903808594
6.0, 6.052800178527832, 471.0043029785156, 467.58575439453125, 467.0502014160156
6.25, 6.304800033569336, 471.0243225097656, 467.6059875488281, 467.0704650878906
6.5, 6.5543999671936035, 471.0244445800781, 467.6044006347656, 467.06866455078125
6.75, 6.804599761962891, 470.91485595703125, 467.4956970214844, 466.9601135253906
7.0, 7.056399822235107, 470.9737548828125, 467.55419921875, 467.01849365234375
7.25, 7.306000232696533, 470.9692687988281, 467.5498352050781, 467.01409912109375
7.5, 7.5543999671936035, 470.9412536621094, 467.52197265625, 466.9862365722656
7.75, 7.802999973297119, 470.9775390625, 467.5590515136719, 467.0233459472656
8.0, 8.054200172424316, 470.97149658203125, 467.5520324707031, 467.01629638671875
8.25, 8.302599906921387, 471.0840148925781, 467.66400146484375, 467.12823486328125
8.5, 8.553999900817871, 471.0013122558594, 467.5826721191406, 467.04693603515625
8.75, 8.804400444030762, 470.998779296875, 467.5773010253906, 467.04150390625
9.0, 9.054400444030762, 470.99102783203125, 467.57147216796875, 467.0358581542969
9.25, 9.303199768066406, 471.0052795410156, 467.5844421386719, 467.0488586425781
9.5, 9.564200401306152, 471.01190185546875, 467.59259033203125, 467.0569763183594
9.75, 9.803400039672852, 471.0358581542969, 467.61444091796875, 467.0787658691406
10.0, 10.055399894714355, 470.9707946777344, 467.55145263671875, 467.015869140625
10.25, 10.303400039672852, 471.013427734375, 467.591552734375, 467.0559387207031
10.5, 10.55519962310791, 471.0155944824219, 467.5967712402344, 467.0610656738281
10.75, 10.803000450134277, 471.010498046875, 467.5907287597656, 467.05511474609375
11.0, 11.055000305175781, 471.1221923828125, 467.70196533203125, 467.1661682128906
11.25, 11.303400039672852, 470.99676513671875, 467.5794372558594, 467.043701171875
11.5, 11.555000305175781, 471.05963134765625, 467.6394958496094, 467.10369873046875
11.75, 11.807000160217285, 471.06787109375, 467.64776611328125, 467.1119689941406
12.0, 12.05620002746582, 471.0514221191406, 467.6319885253906, 467.0963134765625
12.25, 12.30780029296875, 471.0630798339844, 467.6432189941406, 467.10748291015625
12.5, 12.55780029296875, 471.00213623046875, 467.5827941894531, 467.047119140625
12.75, 12.804400444030762, 471.0348205566406, 467.6150817871094, 467.0794982910156
13.0, 13.05620002746582, 470.9884948730469, 467.5699462890625, 467.03424072265625
13.25, 13.30720043182373, 471.06011962890625, 467.6434326171875, 467.10772705078125
13.5, 13.553400039672852, 470.9331359863281, 467.5150451660156, 466.97943115234375
13.75, 13.804400444030762, 470.9969787597656, 467.57891845703125, 467.0431823730469
14.0, 14.052800178527832, 470.99761962890625, 467.5781555175781, 467.04248046875
14.25, 14.302599906921387, 470.964599609375, 467.54571533203125, 467.010009765625
14.5, 14.556599617004395, 470.96466064453125, 467.5482177734375, 467.0124816894531
14.75, 14.803400039672852, 471.04437255859375, 467.62445068359375, 467.0887145996094
15.0, 15.054400444030762, 471.0158996582031, 467.59674072265625, 467.0610046386719
15.25, 15.304200172424316, 471.0176086425781, 467.6004638671875, 467.064697265625
15.5, 15.556599617004395, 471.06951904296875, 467.6496276855469, 467.1138610839844
15.75, 15.803000450134277, 471.11651611328125, 467.69512939453125, 467.1592712402344
16.0, 16.052600860595703, 471.0256042480469, 467.6063537597656, 467.0707092285156
16.25, 16.305400848388672, 471.05999755859375, 467.6402893066406, 467.10455322265625
16.5, 16.554399490356445, 471.0421142578125, 467.62310791015625, 467.0873718261719
16.75, 16.80419921875, 471.0177001953125, 467.5976867675781, 467.06201171875
17.0, 17.055999755859375, 471.0789794921875, 467.6587829589844, 467.123046875
17.25, 17.307199478149414, 471.0186462402344, 467.59844970703125, 467.0627746582031
17.5, 17.554399490356445, 470.985595703125, 467.56781005859375, 467.0321350097656
17.75, 17.804000854492188, 471.0118408203125, 467.5935363769531, 467.0564270019531
18.0, 18.05419921875, 471.06048583984375, 467.64044189453125, 467.1046142578125
18.25, 18.303600311279297, 471.0822448730469, 467.6578674316406, 467.1228332519531
18.5, 18.556400299072266, 471.00628662109375, 467.58636474609375, 467.0505676269531
18.75, 18.803800582885742, 471.0563049316406, 467.6361999511719, 467.100341796875
19.0, 19.05579948425293, 470.9930725097656, 467.574951171875, 467.0392150878906
19.25, 19.305400848388672, 470.9883728027344, 467.56884765625, 467.03314208984375
19.5, 19.555400848388672, 471.0225830078125, 467.6020202636719, 467.0663757324219
19.75, 19.805599212646484, 471.0330810546875, 467.6141357421875, 467.0784606933594
20.0, 20.05620002746582, 470.96990966796875, 467.5479431152344, 467.0123596191406
20.25, 20.302400588989258, 471.0276794433594, 467.6078796386719, 467.0722961425781
20.5, 20.55620002746582, 470.92926025390625, 467.5116882324219, 466.9760437011719
20.75, 20.80579948425293, 471.03289794921875, 467.6131286621094, 467.07745361328125
21.0, 21.053800582885742, 471.047119140625, 467.6271667480469, 467.0914306640625
21.25, 21.303800582885742, 470.9931335449219, 467.5735778808594, 467.037841796875
21.5, 21.554399490356445, 470.935791015625, 467.5166931152344, 466.98101806640625
21.75, 21.802200317382812, 470.99737548828125, 467.5793151855469, 467.0435485839844
22.0, 22.05459976196289, 471.01824951171875, 467.5984802246094, 467.0626220703125
22.25, 22.30340003967285, 471.0333251953125, 467.61199951171875, 467.07623291015625
22.5, 22.55419921875, 470.9995422363281, 467.5799560546875, 467.04425048828125
22.75, 22.805200576782227, 476.6672058105469, 474.6906433105469, 472.6759948730469
23.0, 23.05660057067871, 475.1775817871094, 474.9019470214844, 471.20050048828125
23.25, 23.305599212646484, 474.8753356933594, 475.2415466308594, 470.9040222167969
23.5, 23.555599212646484, 474.782470703125, 475.2870178222656, 470.8125
23.75, 23.803600311279297, 474.778076171875, 475.26470947265625, 470.8092346191406
24.0, 24.054800033569336, 475.2211608886719, 475.7662658691406, 471.2477111816406
24.25, 24.30340003967285, 475.167724609375, 475.8257751464844, 471.1942443847656
24.5, 24.55340003967285, 475.07257080078125, 475.80072021484375, 471.100830078125
24.75, 24.803199768066406, 475.07257080078125, 475.8521728515625, 471.0998840332031
25.0, 25.055200576782227, 474.9586486816406, 475.77239990234375, 470.9924621582031
25.25, 25.302799224853516, 475.0705871582031, 475.8882751464844, 471.0981750488281
25.5, 25.554800033569336, 475.0544738769531, 475.8849182128906, 471.0835876464844
25.75, 25.805400848388672, 475.0653991699219, 475.9131774902344, 471.0928649902344
26.0, 26.055599212646484, 475.0748596191406, 475.9356994628906, 471.10211181640625
26.25, 26.30340003967285, 474.9825134277344, 475.85009765625, 471.01055908203125
26.5, 26.55579948425293, 475.00946044921875, 475.8801574707031, 471.0374755859375
26.75, 26.804399490356445, 475.0400390625, 475.908203125, 471.06805419921875
27.0, 27.05340003967285, 475.0518798828125, 475.90863037109375, 471.0792541503906
27.25, 27.305200576782227, 474.9789123535156, 475.8282775878906, 471.00604248046875
27.5, 27.55500030517578, 475.056884765625, 475.9176330566406, 471.0863342285156
27.75, 27.804000854492188, 475.0688171386719, 475.9305419921875, 471.09637451171875
28.0, 28.053199768066406, 475.0862731933594, 475.9514465332031, 471.113525390625
28.25, 28.30579948425293, 475.00994873046875, 475.8760986328125, 471.03765869140625
28.5, 28.553600311279297, 474.9960632324219, 475.8545227050781, 471.0242919921875
28.75, 28.804399490356445, 475.0669860839844, 475.91522216796875, 471.09564208984375
29.0, 29.054800033569336, 475.0777282714844, 475.9237365722656, 471.1068420410156
29.25, 29.304399490356445, 475.0943603515625, 475.9432067871094, 471.121337890625
29.5, 29.55459976196289, 475.14959716796875, 476.000244140625, 471.17596435546875
29.75, 29.803199768066406, 475.03778076171875, 475.89630126953125, 471.0655212402344
30.0, 30.05419921875, 475.0921325683594, 475.9513854980469, 471.1189880371094
30.25, 30.30500030517578, 475.06494140625, 475.9170837402344, 471.0925598144531
30.5, 30.55579948425293, 475.0466613769531, 475.88885498046875, 471.07452392578125
30.75, 30.803199768066406, 475.06292724609375, 475.9046325683594, 471.09063720703125
31.0, 31.05579948425293, 475.0534362792969, 475.89886474609375, 471.0812072753906
31.25, 31.303800582885742, 475.0476989746094, 475.8961486816406, 471.0752258300781
31.5, 31.552600860595703, 475.0180969238281, 475.8717956542969, 471.0453186035156
31.75, 31.80579948425293, 475.1322021484375, 475.9896240234375, 471.15960693359375
32.0, 32.05500030517578, 475.0138244628906, 475.85943603515625, 471.0419921875
32.25, 32.30419921875, 475.0604248046875, 475.9024353027344, 471.0887756347656
32.5, 32.555999755859375, 475.0556945800781, 475.8946838378906, 471.08270263671875
32.75, 32.80400085449219, 475.0445861816406, 475.8857116699219, 471.0722351074219
33.0, 33.05500030517578, 475.0924987792969, 475.94061279296875, 471.1191101074219
33.25, 33.302799224853516, 475.0843505859375, 475.9369201660156, 471.1113586425781
33.5, 33.553001403808594, 475.0759582519531, 475.9333801269531, 471.1037902832031
33.75, 33.80400085449219, 475.01263427734375, 475.85791015625, 471.0406188964844
34.0, 34.056400299072266, 475.0820617675781, 475.9225769042969, 471.1092224121094
34.25, 34.30339813232422, 475.1175231933594, 475.95587158203125, 471.1444396972656
34.5, 34.555198669433594, 475.0254211425781, 475.8614196777344, 471.0532531738281
34.75, 34.80500030517578, 475.0808410644531, 475.9341125488281, 471.11297607421875
35.0, 35.0536003112793, 475.0970764160156, 475.9522705078125, 471.12445068359375
35.25, 35.30400085449219, 475.0496520996094, 475.900390625, 471.0779724121094
35.5, 35.555198669433594, 475.0462646484375, 475.89556884765625, 471.07501220703125
35.75, 35.80500030517578, 475.08746337890625, 475.9310607910156, 471.11553955078125
36.0, 36.05400085449219, 475.07537841796875, 475.9162902832031, 471.10662841796875
36.25, 36.3047981262207, 475.196533203125, 476.0382385253906, 471.22430419921875
36.5, 36.5526008605957, 475.0575866699219, 475.9080810546875, 471.0850524902344
36.75, 36.80540084838867, 475.0885314941406, 475.94482421875, 471.1158752441406
37.0, 37.05379867553711, 475.09161376953125, 475.94189453125, 471.11859130859375
37.25, 37.305599212646484, 474.999267578125, 475.84814453125, 471.02801513671875
37.5, 37.555198669433594, 475.0614929199219, 475.90093994140625, 471.0888977050781
37.75, 37.803001403808594, 475.0581359863281, 475.8949279785156, 471.08648681640625
38.0, 38.05459976196289, 475.0410461425781, 475.8801574707031, 471.0689697265625
38.25, 38.3026008605957, 475.04071044921875, 475.88861083984375, 471.068359375
38.5, 38.5526008605957, 475.09503173828125, 475.94970703125, 471.1223449707031
38.75, 38.80339813232422, 475.08807373046875, 475.93682861328125, 471.1145324707031
39.0, 39.056400299072266, 475.0408020019531, 475.8861083984375, 471.0679626464844
39.25, 39.30379867553711, 475.0542907714844, 475.8922119140625, 471.08135986328125
39.5, 39.55619812011719, 475.02618408203125, 475.85986328125, 471.0539245605469
39.75, 39.805599212646484, 475.1053771972656, 475.9448547363281, 471.13250732421875
40.0, 40.05580139160156, 475.0589904785156, 475.9063720703125, 471.08636474609375
40.25, 40.30440139770508, 475.0499267578125, 475.9000244140625, 471.0789489746094
40.5, 40.553199768066406, 474.9991760253906, 475.84814453125, 471.0275573730469
40.75, 40.80220031738281, 475.0738830566406, 475.91510009765625, 471.0966796875
41.0, 41.053001403808594, 475.03076171875, 475.86578369140625, 471.058349609375
41.25, 41.30500030517578, 475.08673095703125, 475.9197692871094, 471.1142578125
41.5, 41.55379867553711, 475.05767822265625, 475.8974609375, 471.0837097167969
41.75, 41.80540084838867, 475.0523681640625, 475.9006042480469, 471.07977294921875
42.0, 42.05619812011719, 475.0157775878906, 475.8647766113281, 471.0435791015625
42.25, 42.30459976196289, 475.0310363769531, 475.88232421875, 471.05877685546875
42.5, 42.55500030517578, 475.03875732421875, 475.8861999511719, 471.0661926269531
42.75, 42.803199768066406, 475.029541015625, 475.8656921386719, 471.05743408203125
43.0, 43.05500030517578, 475.0403747558594, 475.8727722167969, 471.06396484375
43.25, 43.3036003112793, 475.0771789550781, 475.91766357421875, 471.1047058105469
43.5, 43.55540084838867, 474.98809814453125, 475.8287048339844, 471.01385498046875
43.75, 43.80339813232422, 475.0708312988281, 475.9214782714844, 471.098876953125
44.0, 44.05619812011719, 475.08740234375, 475.9427185058594, 471.1148376464844
44.25, 44.303001403808594, 477.6845397949219, 477.8500671386719, 475.4747314453125
44.5, 44.553001403808594, 477.0039978027344, 476.8509216308594, 476.11749267578125
44.75, 44.80379867553711, 476.933837890625, 476.8181457519531, 476.3563537597656
45.0, 45.052398681640625, 476.9390869140625, 476.8829345703125, 476.40277099609375
45.25, 45.30540084838867, 476.60943603515625, 476.5318603515625, 476.17913818359375
45.5, 45.555999755859375, 476.5953674316406, 476.461669921875, 476.357177734375
45.75, 45.8026008605957, 476.59454345703125, 476.4473571777344, 476.4322509765625
46.0, 46.053001403808594, 476.5122375488281, 476.3951110839844, 476.40899658203125
46.25, 46.30440139770508, 476.5009460449219, 476.39874267578125, 476.428955078125
46.5, 46.55459976196289, 476.51629638671875, 476.4236755371094, 476.4819030761719
46.75, 46.80419921875, 476.5429992675781, 476.4566650390625, 476.53302001953125
47.0, 47.055999755859375, 476.5452880859375, 476.468017578125, 476.55035400390625
47.25, 47.303199768066406, 476.517333984375, 476.451171875, 476.5359191894531
47.5, 47.55619812011719, 476.4125671386719, 476.351318359375, 476.44189453125
47.75, 47.801998138427734, 476.45843505859375, 476.408447265625, 476.494873046875
48.0, 48.05459976196289, 476.419921875, 476.3728332519531, 476.4634094238281
48.25, 48.30580139160156, 476.4826965332031, 476.4429016113281, 476.52587890625
48.5, 48.555599212646484, 476.4650573730469, 476.4248352050781, 476.5099792480469
48.75, 48.803001403808594, 476.4864196777344, 476.4537353515625, 476.5389404296875
49.0, 49.05619812011719, 476.4625244140625, 476.43231201171875, 476.5185546875
49.25, 49.30400085449219, 476.42474365234375, 476.39825439453125, 476.4818115234375
49.5, 49.55440139770508, 476.4750061035156, 476.4524230957031, 476.5342712402344
49.75, 49.8047981262207, 476.4809875488281, 476.4602355957031, 476.5373840332031
50.0, 50.055999755859375, 476.4312744140625, 476.41387939453125, 476.4884338378906
50.25, 50.303001403808594, 476.3263244628906, 476.3119812011719, 476.3813171386719
50.5, 50.55580139160156, 476.5133056640625, 476.5020446777344, 476.5713806152344
50.75, 50.8047981262207, 476.5055847167969, 476.49420166015625, 476.5672912597656
51.0, 51.05580139160156, 476.4504089355469, 476.4400634765625, 476.5159606933594
51.25, 51.305599212646484, 476.4567565917969, 476.4447021484375, 476.5254211425781
51.5, 51.55379867553711, 476.3876647949219, 476.3777770996094, 476.4505920410156
51.75, 51.802398681640625, 476.44219970703125, 476.430908203125, 476.50140380859375
52.0, 52.05540084838867, 476.5630798339844, 476.55352783203125, 476.6226501464844
52.25, 52.30220031738281, 476.42633056640625, 476.415283203125, 476.49041748046875
52.5, 52.553199768066406, 476.53070068359375, 476.5212707519531, 476.5939025878906
52.75, 52.802799224853516, 476.4569396972656, 476.44659423828125, 476.521240234375
53.0, 53.05379867553711, 476.4397888183594, 476.4308776855469, 476.5053405761719
53.25, 53.30400085449219, 476.41864013671875, 476.410888671875, 476.4794006347656
53.5, 53.556400299072266, 476.4377746582031, 476.4286193847656, 476.4990234375
53.75, 53.80379867553711, 476.49505615234375, 476.486083984375, 476.55535888671875
54.0, 54.055599212646484, 476.48583984375, 476.47991943359375, 476.5418701171875
54.25, 54.30500030517578, 476.49237060546875, 476.48455810546875, 476.5519714355469
54.5, 54.55440139770508, 476.4950256347656, 476.4876403808594, 476.5550842285156
54.75, 54.80419921875, 476.54315185546875, 476.5351257324219, 476.6064453125
55.0, 55.05540084838867, 476.3800964355469, 476.3713073730469, 476.4411315917969
55.25, 55.30540084838867, 476.4744873046875, 476.46600341796875, 476.53314208984375
55.5, 55.553199768066406, 476.3865661621094, 476.37591552734375, 476.4462585449219
55.75, 55.8047981262207, 476.52227783203125, 476.5152282714844, 476.577880859375
56.0, 56.055599212646484, 476.45947265625, 476.45037841796875, 476.5217590332031
56.25, 56.30440139770508, 476.51055908203125, 476.5015563964844, 476.57135009765625
56.5, 56.55540084838867, 476.4284973144531, 476.41943359375, 476.4893798828125
56.75, 56.801998138427734, 476.4383239746094, 476.42864990234375, 476.4949645996094
57.0, 57.055198669433594, 476.48370361328125, 476.4750671386719, 476.5403137207031
57.25, 57.302799224853516, 476.48870849609375, 476.4806213378906, 476.5428771972656
57.5, 57.5547981262207, 476.41339111328125, 476.40435791015625, 476.4714050292969
57.75, 57.8047981262207, 476.50640869140625, 476.4992980957031, 476.5621643066406
58.0, 58.0536003112793, 476.4869689941406, 476.4802551269531, 476.54608154296875
58.25, 58.302398681640625, 476.41485595703125, 476.4045715332031, 476.4750061035156
58.5, 58.553199768066406, 476.44830322265625, 476.43963623046875, 476.5024719238281
58.75, 58.80540084838867, 476.4930419921875, 476.4822998046875, 476.54974365234375
59.0, 59.0536003112793, 476.4836120605469, 476.4754333496094, 476.5393371582031
59.25, 59.303199768066406, 476.5870361328125, 476.574951171875, 476.6479187011719
59.5, 59.55619812011719, 476.4914855957031, 476.4776916503906, 476.5498046875
59.75, 59.80419921875, 476.49407958984375, 476.4824523925781, 476.5583190917969
60.0, 60.053001403808594, 476.38763427734375, 476.3753662109375, 476.4433898925781
