Time, Timer, measurement1.Three-phase Meter1.VLn_RMS, measurement2.Three-phase Meter2.VLn_RMS, measurement3.Three-phase Meter3.VLn_RMS
0.25, 0.29159998893737793, 430.8082275390625, 427.5089111328125, 427.1240539550781
0.5, 0.5446000099182129, 686.8392944335938, 681.6343994140625, 681.0337524414062
0.75, 0.7924000024795532, 497.2241516113281, 493.43133544921875, 492.98992919921875
1.0, 1.0440000295639038, 472.65191650390625, 469.0412902832031, 468.6208190917969
1.25, 1.2926000356674194, 412.4764404296875, 409.3134460449219, 408.9443054199219
1.5, 1.5418000221252441, 814.6941528320312, 808.4553833007812, 807.7384643554688
1.75, 1.7905999422073364, 515.0204467773438, 511.1362609863281, 510.6543273925781
2.0, 2.0443999767303467, 475.1600341796875, 471.6683654785156, 471.1621398925781
2.25, 2.2911999225616455, 383.466796875, 380.6165771484375, 380.2097473144531
2.5, 2.5462000370025635, 624.1903686523438, 618.7806396484375, 617.8897705078125
2.75, 2.7913999557495117, 534.606689453125, 530.7582397460938, 530.1522827148438
3.0, 3.042799949645996, 477.1743469238281, 473.72723388671875, 473.1839599609375
3.25, 3.2901999950408936, 367.3172912597656, 364.6219482421875, 364.20831298828125
3.5, 3.5411999225616455, 463.0785827636719, 459.7083435058594, 459.194580078125
3.75, 3.795599937438965, 550.1822509765625, 546.22412109375, 545.6007080078125
4.0, 4.044400215148926, 477.5541687011719, 474.1067810058594, 473.5614929199219
4.25, 4.293399810791016, 349.6192626953125, 347.0353088378906, 346.6493835449219
4.5, 4.541200160980225, 462.6266784667969, 459.2578125, 458.7455139160156
4.75, 4.791399955749512, 563.4453125, 559.396728515625, 558.75634765625
5.0, 5.0432000160217285, 478.9794616699219, 475.5238037109375, 474.9757080078125
5.25, 5.294600009918213, 338.3792419433594, 335.8578796386719, 335.4924621582031
5.5, 5.542799949645996, 460.9045715332031, 457.54345703125, 457.03582763671875
5.75, 5.793799877166748, 577.8465576171875, 573.6815185546875, 573.0364990234375
6.0, 6.044600009918213, 480.5723876953125, 477.1011962890625, 476.5542297363281
6.25, 6.293799877166748, 325.9836120605469, 323.5592956542969, 323.1973876953125
6.5, 6.543799877166748, 459.0411376953125, 455.693359375, 455.1871337890625
6.75, 6.791800022125244, 587.7327270507812, 583.4908447265625, 582.8394775390625
7.0, 7.0472002029418945, 481.74755859375, 478.2711181640625, 477.7213439941406
7.25, 7.291999816894531, 333.8375549316406, 331.3385925292969, 330.9812927246094
7.5, 7.542200088500977, 457.2082214355469, 453.87493896484375, 453.3700866699219
7.75, 7.790999889373779, 581.6641845703125, 577.47509765625, 576.8243408203125
8.0, 8.043399810791016, 482.9439697265625, 479.4589538574219, 478.9071960449219
8.25, 8.291399955749512, 330.59100341796875, 328.11810302734375, 327.7648010253906
8.5, 8.542799949645996, 456.5523376464844, 453.22406005859375, 452.72039794921875
8.75, 8.7947998046875, 590.9236450195312, 586.6643676757812, 586.0035400390625
9.0, 9.04520034790039, 484.20953369140625, 480.7179870605469, 480.16387939453125
9.25, 9.290399551391602, 318.53265380859375, 316.2057189941406, 315.832275390625
9.5, 9.549599647521973, 457.435791015625, 454.1023864746094, 453.5962829589844
9.75, 9.791600227355957, 601.7591552734375, 597.43017578125, 596.7570190429688
10.0, 10.041999816894531, 485.713623046875, 482.21356201171875, 481.6573791503906
10.25, 10.293999671936035, 304.5059814453125, 302.54345703125, 302.1787414550781
10.5, 10.548199653625488, 455.4538269042969, 452.1681213378906, 451.66436767578125
10.75, 10.791000366210938, 613.8743286132812, 609.2083129882812, 608.5345458984375
11.0, 11.045000076293945, 484.6940002441406, 481.1700439453125, 480.615234375
11.25, 11.292799949645996, 300.8269958496094, 298.8893127441406, 298.5314025878906
11.5, 11.54259967803955, 454.8454895019531, 451.5669250488281, 451.0641174316406
11.75, 11.792400360107422, 626.0534057617188, 621.2798461914062, 620.594970703125
12.0, 12.04539966583252, 486.23382568359375, 482.6916809082031, 482.1367492675781
12.25, 12.291399955749512, 297.2289123535156, 295.05682373046875, 294.70465087890625
12.5, 12.541000366210938, 453.96368408203125, 450.65338134765625, 450.1518249511719
12.75, 12.791600227355957, 628.6319580078125, 624.08154296875, 623.3942260742188
13.0, 13.045000076293945, 486.5040283203125, 482.9949951171875, 482.4400329589844
13.25, 13.291000366210938, 282.32806396484375, 280.244384765625, 279.90887451171875
13.5, 13.54319953918457, 452.2245178222656, 448.9248962402344, 448.4252014160156
13.75, 13.793000221252441, 621.0401611328125, 616.5435180664062, 615.63037109375
14.0, 14.042200088500977, 488.42596435546875, 484.90496826171875, 484.3099365234375
14.25, 14.292200088500977, 291.7904052734375, 289.61968994140625, 289.8463439941406
14.5, 14.54259967803955, 449.939208984375, 446.6492614746094, 446.24310302734375
14.75, 14.790599822998047, 634.4462280273438, 629.8548583984375, 628.6406860351562
15.0, 15.044400215148926, 490.2974548339844, 486.7636413574219, 486.12347412109375
15.25, 15.293600082397461, 287.5814514160156, 285.44134521484375, 285.70098876953125
15.5, 15.54259967803955, 449.2265930175781, 445.94317626953125, 445.54046630859375
15.75, 15.794599533081055, 637.9022216796875, 633.2964477539062, 632.0695190429688
16.0, 16.05900001525879, 487.6061706542969, 484.09552001953125, 483.4654846191406
16.25, 16.29360008239746, 283.65582275390625, 281.5406494140625, 282.12420654296875
16.5, 16.552600860595703, 452.2991638183594, 448.99432373046875, 448.6188659667969
16.75, 16.793399810791016, 641.28564453125, 636.6449584960938, 634.8861083984375
17.0, 17.042800903320312, 487.9695129394531, 484.4510498046875, 483.7462463378906
17.25, 17.291799545288086, 279.6676025390625, 277.87689208984375, 278.75494384765625
17.5, 17.540000915527344, 451.7240905761719, 448.4642333984375, 444.3950500488281
17.75, 17.792200088500977, 644.5576171875, 639.6217651367188, 637.857177734375
18.0, 18.043800354003906, 488.4462585449219, 484.88836669921875, 484.1817321777344
18.25, 18.29159927368164, 276.05755615234375, 274.5860290527344, 275.4483337402344
18.5, 18.54360008239746, 451.194091796875, 447.9798889160156, 447.6505432128906
18.75, 18.792600631713867, 647.7975463867188, 642.8275146484375, 641.0415649414062
19.0, 19.04159927368164, 488.8702392578125, 485.3085021972656, 484.59844970703125
19.25, 19.29319953918457, 273.0473937988281, 271.31121826171875, 271.8918762207031
19.5, 19.541000366210938, 450.7427062988281, 447.4931945800781, 447.1275939941406
19.75, 19.79159927368164, 650.876708984375, 645.8709106445312, 644.3182983398438
20.0, 20.043399810791016, 489.27227783203125, 485.7065734863281, 485.0302734375
20.25, 20.292600631713867, 295.3211975097656, 293.3890075683594, 293.8731689453125
20.5, 20.541400909423828, 450.3018493652344, 447.0552673339844, 446.69244384765625
20.75, 20.79360008239746, 630.6393432617188, 625.8161010742188, 624.3618774414062
21.0, 21.042400360107422, 489.6831970214844, 486.1143798828125, 485.4380798339844
21.25, 21.292600631713867, 292.2254333496094, 290.3276062011719, 290.8260803222656
21.5, 21.541400909423828, 449.76165771484375, 446.5184326171875, 446.156494140625
21.75, 21.790599822998047, 633.7530517578125, 628.90625, 627.435302734375
22.0, 22.04319953918457, 490.145263671875, 486.5713806152344, 485.89141845703125
22.25, 22.291200637817383, 288.8321533203125, 286.9688720703125, 287.4963073730469
22.5, 22.54319953918457, 449.2501220703125, 446.0125732421875, 445.6524353027344
22.75, 22.79439926147461, 636.6519775390625, 631.7805786132812, 630.2971801757812
23.0, 23.04319953918457, 487.2735290527344, 487.0066833496094, 486.3238525390625
23.25, 23.292400360107422, 285.5782470703125, 283.7476501464844, 284.0206604003906
23.5, 23.542400360107422, 452.4185485839844, 449.1532287597656, 448.7364196777344
23.75, 23.792800903320312, 639.8156127929688, 634.920166015625, 633.6926879882812
24.0, 24.045799255371094, 487.5124816894531, 483.9599609375, 483.32958984375
24.25, 24.292600631713867, 281.91448974609375, 280.1108093261719, 280.39349365234375
24.5, 24.540599822998047, 451.91986083984375, 448.6590270996094, 448.2444763183594
24.75, 24.791799545288086, 642.8187866210938, 638.165283203125, 636.9345703125
25.0, 25.0447998046875, 488.094970703125, 484.57666015625, 483.9449768066406
25.25, 25.291000366210938, 278.9150695800781, 276.830078125, 276.8084716796875
25.5, 25.54199981689453, 451.5032043457031, 448.2040100097656, 447.7493896484375
25.75, 25.791200637817383, 645.7818603515625, 641.1025390625, 640.1351318359375
26.0, 26.044599533081055, 488.4886169433594, 484.9718017578125, 484.37579345703125
26.25, 26.295000076293945, 299.8263854980469, 297.5845642089844, 297.51788330078125
26.5, 26.543800354003906, 450.9622497558594, 447.6674499511719, 447.21478271484375
26.75, 26.792800903320312, 626.2721557617188, 621.7368774414062, 620.8081665039062
27.0, 27.043399810791016, 488.9509582519531, 485.42626953125, 484.8290710449219
27.25, 27.291400909423828, 296.8659973144531, 294.6496887207031, 294.5906677246094
27.5, 27.54319953918457, 450.4822692871094, 447.19091796875, 446.7394714355469
27.75, 27.792800903320312, 629.0328979492188, 624.4781494140625, 623.5387573242188
28.0, 28.042600631713867, 489.3773193359375, 485.84954833984375, 485.2504577636719
28.25, 28.291200637817383, 293.8435974121094, 291.6541442871094, 291.5993347167969
28.5, 28.54360008239746, 450.005859375, 446.71856689453125, 446.26800537109375
28.75, 28.7903995513916, 631.8734741210938, 627.55908203125, 626.3526000976562
29.0, 29.042800903320312, 489.8074645996094, 486.3163146972656, 485.67755126953125
29.25, 29.29199981689453, 290.8181457519531, 288.3801574707031, 288.61114501953125
29.5, 29.54199981689453, 449.4944152832031, 446.1667785644531, 445.7610778808594
29.75, 29.790199279785156, 634.7492065429688, 630.419189453125, 629.2039794921875
30.0, 30.044599533081055, 486.9773254394531, 483.50091552734375, 482.87384033203125
30.25, 30.2903995513916, 287.27056884765625, 284.8454895019531, 285.1078796386719
30.5, 30.542400360107422, 452.4687194824219, 449.1249694824219, 448.7073059082031
30.75, 30.792800903320312, 638.2139282226562, 633.8616333007812, 632.6354370117188
31.0, 31.045400619506836, 487.3361511230469, 483.8583679199219, 483.22894287109375
31.25, 31.290199279785156, 283.74298095703125, 281.3306579589844, 281.91229248046875
31.5, 31.539199829101562, 452.1100158691406, 448.7645263671875, 448.3917541503906
31.75, 31.789600372314453, 641.4435424804688, 637.0714111328125, 635.57421875
32.0, 32.04460144042969, 487.8765869140625, 484.3968811035156, 483.7281799316406
32.25, 32.29240036010742, 279.8162841796875, 277.7313537597656, 278.3062438964844
32.5, 32.543399810791016, 451.57061767578125, 448.2696228027344, 447.896240234375
32.75, 32.79240036010742, 644.6863403320312, 640.28369140625, 638.51611328125
33.0, 33.04499816894531, 488.32904052734375, 484.84747314453125, 484.1382141113281
33.25, 33.289798736572266, 276.8348693847656, 274.2359619140625, 275.3639831542969
33.5, 33.542598724365234, 451.0185852050781, 447.63519287109375, 447.3483581542969
33.75, 33.78879928588867, 647.6171264648438, 643.458740234375, 641.6688842773438
34.0, 34.04520034790039, 488.7701721191406, 485.3243408203125, 484.6139221191406
34.25, 34.292198181152344, 298.5057678222656, 295.52447509765625, 296.2367858886719
34.5, 34.542999267578125, 450.56988525390625, 447.1482849121094, 446.8252258300781
34.75, 34.79199981689453, 627.9779663085938, 624.1780395507812, 622.4923706054688
35.0, 35.04119873046875, 489.2257385253906, 485.8205871582031, 485.1011962890625
35.25, 35.2953987121582, 295.52581787109375, 292.5592346191406, 293.2940979003906
35.5, 35.54100036621094, 450.1041259765625, 446.68096923828125, 446.36199951171875
35.75, 35.792198181152344, 630.50341796875, 626.7030029296875, 624.9888305664062
36.0, 36.043800354003906, 489.5989990234375, 486.18463134765625, 485.4676818847656
36.25, 36.29100036621094, 292.7780456542969, 289.822998046875, 290.57366943359375
36.5, 36.54460144042969, 453.1799621582031, 449.74639892578125, 449.4051513671875
36.75, 36.7947998046875, 633.38818359375, 629.5797119140625, 627.8494873046875
37.0, 37.04399871826172, 486.8316650390625, 483.43255615234375, 482.73333740234375
37.25, 37.29119873046875, 289.35845947265625, 286.3964538574219, 287.195556640625
37.5, 37.543399810791016, 452.7320556640625, 449.3047790527344, 448.96551513671875
37.75, 37.79240036010742, 636.5776977539062, 632.761474609375, 631.009521484375
38.0, 38.042198181152344, 487.2437438964844, 483.8405456542969, 483.13983154296875
38.25, 38.29180145263672, 286.1551513671875, 283.18499755859375, 283.7344970703125
38.5, 38.540000915527344, 452.295654296875, 448.8693542480469, 448.4931945800781
38.75, 38.7953987121582, 639.5109252929688, 635.6773681640625, 634.185302734375
39.0, 39.04439926147461, 487.61663818359375, 484.2084045410156, 483.54241943359375
39.25, 39.289398193359375, 282.2051696777344, 279.24652099609375, 279.80340576171875
39.5, 39.54140090942383, 451.7641296386719, 448.336181640625, 447.9654846191406
39.75, 39.7932014465332, 642.5848999023438, 616.7271118164062, 637.2332153320312
40.0, 40.043800354003906, 487.96722412109375, 484.5651550292969, 483.89447021484375
40.25, 40.2947998046875, 303.5409240722656, 300.5341491699219, 300.9632263183594
40.5, 40.543800354003906, 451.3539733886719, 447.92913818359375, 447.5591735839844
40.75, 40.792598724365234, 623.3013305664062, 619.498779296875, 618.1069946289062
41.0, 41.0453987121582, 484.14996337890625, 482.3398132324219, 480.1405334472656
41.25, 41.29100036621094, 395.7467956542969, 394.1252746582031, 392.44000244140625
41.5, 41.542999267578125, 471.55084228515625, 469.45281982421875, 467.5852966308594
41.75, 41.792198181152344, 543.274169921875, 540.6412963867188, 538.6965942382812
42.0, 42.04719924926758, 174.7748260498047, 179.40509033203125, 173.3690948486328
42.25, 42.29600143432617, 425.7563781738281, 423.84344482421875, 422.1347351074219
42.5, 42.54199981689453, 773.5022583007812, 773.54248046875, 767.043212890625
42.75, 42.792598724365234, 504.273681640625, 503.7207336425781, 499.972412109375
43.0, 43.042999267578125, 327.2787780761719, 326.82684326171875, 324.4725036621094
43.25, 43.29180145263672, 460.1564025878906, 460.97552490234375, 456.26611328125
43.5, 43.5453987121582, 559.4512939453125, 562.732177734375, 554.7484130859375
43.75, 43.78839874267578, 174.89553833007812, 207.7566680908203, 173.83468627929688
44.0, 44.0432014465332, 430.958251953125, 433.4450378417969, 427.2980041503906
44.25, 44.292999267578125, 725.1481323242188, 729.561767578125, 719.062744140625
44.5, 44.54240036010742, 492.9903869628906, 498.64111328125, 488.8152770996094
44.75, 44.792598724365234, 318.3246765136719, 320.9161682128906, 315.574951171875
45.0, 45.0447998046875, 459.0069885253906, 464.00958251953125, 455.1103210449219
45.25, 45.29180145263672, 574.3680419921875, 582.9302978515625, 569.517822265625
45.5, 45.540401458740234, 474.9803771972656, 481.8885192871094, 470.95068359375
45.75, 45.79119873046875, 390.9730529785156, 395.3114929199219, 387.6326599121094
46.0, 46.04280090332031, 466.46978759765625, 472.5155944824219, 462.5120849609375
46.25, 46.292598724365234, 521.9989624023438, 530.4401245117188, 517.5864868164062
46.5, 46.54059982299805, 203.87518310546875, 252.71429443359375, 202.4843292236328
46.75, 46.79159927368164, 427.3984069824219, 432.7001953125, 423.7619323730469
47.0, 47.04399871826172, 797.3279418945312, 804.725830078125, 790.6135864257812
47.25, 47.29499816894531, 502.49298095703125, 510.409423828125, 498.2408752441406
47.5, 47.54079818725586, 191.74993896484375, 200.94264221191406, 190.14450073242188
47.75, 47.790000915527344, 444.0157470703125, 449.45672607421875, 440.2440490722656
48.0, 48.0432014465332, 710.3768920898438, 718.1367797851562, 704.4004516601562
48.25, 48.292198181152344, 491.1501770019531, 498.5262145996094, 486.9920654296875
48.5, 48.542198181152344, 265.5942687988281, 269.26806640625, 263.2102966308594
48.75, 48.792999267578125, 453.3717041015625, 458.9229431152344, 449.491943359375
49.0, 49.04199981689453, 644.9137573242188, 629.8108520507812, 639.4166259765625
49.25, 49.29059982299805, 483.39520263671875, 490.4378662109375, 479.2295227050781
49.5, 49.54140090942383, 345.0096740722656, 348.8564453125, 342.00390625
49.75, 49.79159927368164, 459.9769287109375, 465.6164245605469, 456.0126037597656
50.0, 50.043800354003906, 577.479248046875, 586.1237182617188, 572.526123046875
50.25, 50.29280090332031, 477.79974365234375, 484.5986328125, 473.713623046875
50.5, 50.54140090942383, 382.5297546386719, 386.598876953125, 379.24029541015625
50.75, 50.790000915527344, 464.6995544433594, 470.33099365234375, 460.7607116699219
51.0, 51.0442008972168, 544.9739990234375, 553.2400512695312, 540.38525390625
51.25, 51.29159927368164, 473.7537536621094, 480.4386291503906, 469.7406311035156
51.5, 51.54460144042969, 409.58721923828125, 414.13531494140625, 405.9801940917969
51.75, 51.7932014465332, 494.5970764160156, 893.335205078125, 483.73956298828125
52.0, 52.04280090332031, 521.5361328125, 529.5316162109375, 517.2357788085938
52.25, 52.290199279785156, 293.98065185546875, 199.6150665283203, 296.14886474609375
52.5, 52.540000915527344, 425.0768127441406, 430.13909912109375, 421.3760986328125
52.75, 52.789398193359375, 835.28076171875, 842.4893798828125, 828.7839965820312
53.0, 53.0447998046875, 507.7756652832031, 515.408935546875, 503.564453125
53.25, 53.29140090942383, 197.5357666015625, 205.87747192382812, 195.49755859375
53.5, 53.546600341796875, 439.91668701171875, 450.39324951171875, 441.16705322265625
53.75, 53.792598724365234, 704.6668090820312, 712.0307006835938, 699.1412963867188
54.0, 54.04159927368164, 494.7575988769531, 502.0935363769531, 490.6821594238281
54.25, 54.290199279785156, 271.7310485839844, 275.6056213378906, 268.6587219238281
54.5, 54.54059982299805, 453.8550720214844, 457.7026672363281, 454.568603515625
54.75, 54.78879928588867, 242.3528594970703, 294.1830139160156, 227.82550048828125
55.0, 55.04280090332031, 436.4443359375, 441.05145263671875, 435.8826599121094
55.25, 55.290000915527344, 1034.598388671875, 1039.939453125, 1033.326416015625
55.5, 55.54199981689453, 411.2254333496094, 416.35296630859375, 409.85650634765625
55.75, 55.79159927368164, 1190.0787353515625, 1184.7410888671875, 1168.141845703125
56.0, 56.046199798583984, 374.8930969238281, 380.3609924316406, 373.59027099609375
56.25, 56.29520034790039, 463.7135925292969, 469.3973693847656, 463.3285217285156
56.5, 56.54119873046875, 334.0542297363281, 339.8185119628906, 335.0655212402344
56.75, 56.79159927368164, 456.79779052734375, 462.5173645019531, 457.2450256347656
57.0, 57.0447998046875, 283.46893310546875, 290.4983215332031, 290.84716796875
57.25, 57.29059982299805, 448.3034362792969, 454.17535400390625, 449.4552307128906
57.5, 57.542198181152344, 228.7939910888672, 242.36415100097656, 251.97738647460938
57.75, 57.78879928588867, 436.0911560058594, 442.1457824707031, 437.75799560546875
58.0, 58.043399810791016, 371.43994140625, 399.5944519042969, 441.748779296875
58.25, 58.290000915527344, 422.8587646484375, 428.8402099609375, 424.9893493652344
58.5, 58.55160140991211, 1110.669921875, 1117.64306640625, 1107.8157958984375
58.75, 58.79100036621094, 390.0863952636719, 395.81719970703125, 392.3730163574219
59.0, 59.04460144042969, 461.9494934082031, 467.57330322265625, 467.5547790527344
59.25, 59.29059982299805, 337.1354675292969, 343.0965576171875, 342.0354919433594
59.5, 59.53960037231445, 455.0690002441406, 460.63812255859375, 459.1228942871094
59.75, 59.78900146484375, 249.2909698486328, 257.0332336425781, 268.4721374511719
60.0, 60.04460144042969, 445.2852783203125, 450.96636962890625, 448.9996337890625
