Time, Timer, measurement1.Three-phase Meter1.VLn_RMS, measurement2.Three-phase Meter2.VLn_RMS, measurement3.Three-phase Meter3.VLn_RMS
0.25, 0.298799991607666, 470.3145751953125, 466.7232360839844, 466.2954406738281
0.5, 0.5576000213623047, 469.69927978515625, 466.1108093261719, 465.68359375
0.75, 0.805400013923645, 469.7134094238281, 466.1266784667969, 465.6994323730469
1.0, 1.0568000078201294, 469.71075439453125, 466.1235656738281, 465.69635009765625
1.25, 1.3051999807357788, 469.7290954589844, 466.1402282714844, 465.7130432128906
1.5, 1.5573999881744385, 469.7359924316406, 466.1468505859375, 465.7196960449219
1.75, 1.806399941444397, 470.5717468261719, 467.0403747558594, 466.5706787109375
2.0, 2.0585999488830566, 470.09100341796875, 466.6330261230469, 466.1265563964844
2.25, 2.2983999252319336, 470.00653076171875, 466.5789794921875, 466.0537109375
2.5, 2.5573999881744385, 470.0029602050781, 466.5843200683594, 466.052734375
2.75, 2.7990000247955322, 470.00103759765625, 466.5862731933594, 466.0527038574219
3.0, 3.058199882507324, 470.0057067871094, 466.59381103515625, 466.0594787597656
3.25, 3.312000036239624, 469.99993896484375, 466.58782958984375, 466.05328369140625
3.5, 3.557800054550171, 470.02093505859375, 466.6072692871094, 466.07257080078125
3.75, 3.804800033569336, 470.2566833496094, 466.84014892578125, 466.3053283691406
4.0, 4.058599948883057, 470.66009521484375, 467.24737548828125, 466.71044921875
4.25, 4.307000160217285, 470.6856689453125, 467.2667541503906, 466.7316589355469
4.5, 4.548799991607666, 470.6911315917969, 467.2725524902344, 466.7378234863281
4.75, 4.807799816131592, 470.68267822265625, 467.2661437988281, 466.7312927246094
5.0, 5.057799816131592, 470.69244384765625, 467.2756042480469, 466.7406921386719
5.25, 5.303800106048584, 470.6767578125, 467.261962890625, 466.72711181640625
5.5, 5.563199996948242, 470.6876220703125, 467.27069091796875, 466.73583984375
5.75, 5.798999786376953, 470.6942443847656, 467.2766418457031, 466.7418212890625
6.0, 6.052000045776367, 470.6847229003906, 467.2689514160156, 466.73541259765625
6.25, 6.299200057983398, 470.72674560546875, 467.30609130859375, 466.77130126953125
6.5, 6.550000190734863, 470.692626953125, 467.2755126953125, 466.74072265625
6.75, 6.798999786376953, 470.70928955078125, 467.29107666015625, 466.75628662109375
7.0, 7.048799991607666, 470.7091064453125, 467.292236328125, 466.7574462890625
7.25, 7.30079984664917, 470.71844482421875, 467.3003234863281, 466.7655334472656
7.5, 7.548999786376953, 470.710205078125, 467.2930603027344, 466.7582702636719
7.75, 7.798399925231934, 470.7037353515625, 467.2857360839844, 466.7509460449219
8.0, 8.052800178527832, 470.7269592285156, 467.3085632324219, 466.77374267578125
8.25, 8.298399925231934, 470.7144775390625, 467.2987976074219, 466.76397705078125
8.5, 8.550999641418457, 470.7350158691406, 467.31793212890625, 466.7831115722656
8.75, 8.799400329589844, 470.72698974609375, 467.30975341796875, 466.77490234375
9.0, 9.049599647521973, 470.7431335449219, 467.3244934082031, 466.78961181640625
9.25, 9.299200057983398, 470.70318603515625, 467.2860412597656, 466.7510986328125
9.5, 9.552000045776367, 470.7306823730469, 467.3147277832031, 466.7798156738281
9.75, 9.798999786376953, 470.7377014160156, 467.31939697265625, 466.7844543457031
10.0, 10.050600051879883, 470.72607421875, 467.307373046875, 466.7724304199219
10.25, 10.300399780273438, 470.7510681152344, 467.33441162109375, 466.7994384765625
10.5, 10.549200057983398, 470.739990234375, 467.3255615234375, 466.7906188964844
10.75, 10.798999786376953, 470.735107421875, 467.3171691894531, 466.7821960449219
11.0, 11.050800323486328, 470.74859619140625, 467.3326721191406, 466.7977600097656
11.25, 11.298800468444824, 470.7518310546875, 467.3345031738281, 466.7995910644531
11.5, 11.548800468444824, 470.79974365234375, 467.3818359375, 466.8469543457031
11.75, 11.801600456237793, 470.73101806640625, 467.3150634765625, 466.7801818847656
12.0, 12.050200462341309, 470.7179870605469, 467.3011169433594, 466.7667541503906
12.25, 12.300399780273438, 470.73822021484375, 467.32073974609375, 466.7859191894531
12.5, 12.550000190734863, 470.7336730957031, 467.3177795410156, 466.7828674316406
12.75, 12.800800323486328, 470.7536315917969, 467.3338317871094, 466.7989196777344
13.0, 13.048800468444824, 470.727783203125, 467.30889892578125, 466.774169921875
13.25, 13.300800323486328, 470.7390441894531, 467.3204650878906, 466.78436279296875
13.5, 13.565400123596191, 470.7347106933594, 467.3172912597656, 466.78265380859375
13.75, 13.803799629211426, 470.80877685546875, 467.38824462890625, 466.85491943359375
14.0, 14.05780029296875, 470.7845764160156, 467.36663818359375, 466.8316345214844
14.25, 14.303400039672852, 470.78094482421875, 467.366943359375, 466.831298828125
14.5, 14.55780029296875, 470.8047180175781, 467.3827209472656, 466.8487854003906
14.75, 14.798999786376953, 470.7563171386719, 467.3387145996094, 466.8037414550781
15.0, 15.049799919128418, 470.7726745605469, 467.35333251953125, 466.81982421875
15.25, 15.300999641418457, 470.7716064453125, 467.3529968261719, 466.81866455078125
15.5, 15.548800468444824, 470.7886657714844, 467.3690490722656, 466.8332824707031
15.75, 15.803999900817871, 470.7622375488281, 467.3437194824219, 466.8072509765625
16.0, 16.0492000579834, 470.72900390625, 467.31024169921875, 466.7760925292969
16.25, 16.299800872802734, 470.75677490234375, 467.3396911621094, 466.80438232421875
16.5, 16.55419921875, 470.7504577636719, 467.33404541015625, 466.7980041503906
16.75, 16.84119987487793, 470.7629089355469, 467.342529296875, 466.80816650390625
17.0, 17.057199478149414, 470.719970703125, 467.30194091796875, 466.7673034667969
17.25, 17.303800582885742, 470.7679443359375, 467.3487243652344, 466.8127136230469
17.5, 17.55699920654297, 470.75335693359375, 467.3359680175781, 466.8026123046875
17.75, 17.80620002746582, 470.8108215332031, 467.39312744140625, 466.858154296875
18.0, 18.0492000579834, 470.7730712890625, 467.3528137207031, 466.8171691894531
18.25, 18.298799514770508, 470.7718811035156, 467.353759765625, 466.8187561035156
18.5, 18.55780029296875, 470.7620544433594, 467.343994140625, 466.8099060058594
18.75, 18.807600021362305, 470.7727355957031, 467.3547668457031, 466.81964111328125
19.0, 19.052000045776367, 470.77313232421875, 467.3558349609375, 466.82147216796875
19.25, 19.3085994720459, 470.7812194824219, 467.3639221191406, 466.828369140625
19.5, 19.55459976196289, 470.74212646484375, 467.3238220214844, 466.787353515625
19.75, 19.798599243164062, 470.7513427734375, 467.330810546875, 466.79669189453125
20.0, 20.052000045776367, 470.79412841796875, 467.375, 466.8411865234375
20.25, 20.29840087890625, 470.8019104003906, 467.38525390625, 466.8501281738281
20.5, 20.5492000579834, 470.7525634765625, 467.3370666503906, 466.8009948730469
20.75, 20.807600021362305, 470.727783203125, 467.3108825683594, 466.7755432128906
21.0, 21.04960060119629, 470.8073425292969, 467.3887634277344, 466.853271484375
21.25, 21.30820083618164, 470.7730407714844, 467.3570251464844, 466.8211364746094
21.5, 21.554000854492188, 470.73956298828125, 467.324462890625, 466.7890625
21.75, 21.805999755859375, 470.8212890625, 467.4038391113281, 466.8685607910156
22.0, 22.05579948425293, 470.75933837890625, 467.3427429199219, 466.8060302734375
22.25, 22.298999786376953, 470.77178955078125, 467.3538818359375, 466.81878662109375
22.5, 22.54960060119629, 470.7579650878906, 467.34039306640625, 466.80560302734375
22.75, 22.807600021362305, 470.7701110839844, 467.351318359375, 466.8162536621094
23.0, 23.05699920654297, 470.7503662109375, 467.3317565917969, 466.7967224121094
23.25, 23.30620002746582, 470.7636413574219, 467.3460693359375, 466.81103515625
23.5, 23.549400329589844, 470.7679748535156, 467.35052490234375, 466.81549072265625
23.75, 23.800800323486328, 470.77972412109375, 467.3629150390625, 466.8278503417969
24.0, 24.04840087890625, 470.7724914550781, 467.35430908203125, 466.8192443847656
24.25, 24.304000854492188, 470.77362060546875, 467.3578796386719, 466.8228759765625
24.5, 24.548999786376953, 470.78240966796875, 467.3647155761719, 466.8296203613281
24.75, 24.806400299072266, 470.78155517578125, 467.36395263671875, 466.8288879394531
25.0, 25.051599502563477, 470.7859802246094, 467.3695373535156, 466.8344421386719
25.25, 25.304000854492188, 470.74835205078125, 467.3304748535156, 466.79541015625
25.5, 25.557199478149414, 470.7747497558594, 467.3563232421875, 466.8212585449219
25.75, 25.805999755859375, 470.78448486328125, 467.3668212890625, 466.8316955566406
26.0, 26.054399490356445, 470.7675476074219, 467.3500061035156, 466.8149108886719
26.25, 26.298799514770508, 470.78509521484375, 467.36737060546875, 466.832275390625
26.5, 26.55780029296875, 470.76727294921875, 467.3486022949219, 466.8134765625
26.75, 26.80699920654297, 470.7863464355469, 467.3675842285156, 466.8324890136719
27.0, 27.052000045776367, 470.7706604003906, 467.3523254394531, 466.8172302246094
27.25, 27.298799514770508, 470.76202392578125, 467.3468017578125, 466.811767578125
27.5, 27.554800033569336, 470.76739501953125, 467.351318359375, 466.8162536621094
27.75, 27.798599243164062, 470.7662658691406, 467.34698486328125, 466.8119812011719
28.0, 28.0492000579834, 470.7611999511719, 467.3435363769531, 466.8086242675781
28.25, 28.308799743652344, 470.7674560546875, 467.3489685058594, 466.8139953613281
28.5, 28.54960060119629, 470.69305419921875, 467.27484130859375, 466.7411804199219
28.75, 28.801599502563477, 470.74261474609375, 467.32525634765625, 466.79022216796875
29.0, 29.05459976196289, 470.77117919921875, 467.3536682128906, 466.8186340332031
29.25, 29.300399780273438, 470.77667236328125, 467.3601379394531, 466.8251037597656
29.5, 29.554000854492188, 470.74737548828125, 467.3298645019531, 466.79486083984375
29.75, 29.80419921875, 470.7936096191406, 467.37603759765625, 466.8409118652344
30.0, 30.048999786376953, 470.75909423828125, 467.34161376953125, 466.8065185546875
30.25, 30.307600021362305, 470.77117919921875, 467.3546447753906, 466.819580078125
30.5, 30.55419921875, 470.7314758300781, 467.3149719238281, 466.7798767089844
30.75, 30.80620002746582, 470.76708984375, 467.3508605957031, 466.8157043457031
31.0, 31.056800842285156, 470.74285888671875, 467.3254699707031, 466.79034423828125
31.25, 31.301599502563477, 470.7759094238281, 467.3601989746094, 466.8250427246094
31.5, 31.55620002746582, 470.769287109375, 467.35260009765625, 466.8174743652344
31.75, 31.801000595092773, 470.7675476074219, 467.3480224609375, 466.8128967285156
32.0, 32.049198150634766, 470.77789306640625, 467.35772705078125, 466.8226318359375
32.25, 32.30379867553711, 470.76153564453125, 467.3434753417969, 466.80841064453125
32.5, 32.559200286865234, 470.785888671875, 467.3690490722656, 466.8339538574219
32.75, 32.80739974975586, 470.78167724609375, 467.3629455566406, 466.827880859375
33.0, 33.049400329589844, 470.76312255859375, 467.3453063964844, 466.810302734375
33.25, 33.29859924316406, 470.7757263183594, 467.35723876953125, 466.8222351074219
33.5, 33.55039978027344, 470.75775146484375, 467.3402099609375, 466.8051452636719
33.75, 33.80400085449219, 470.7638854980469, 467.3459777832031, 466.8109436035156
34.0, 34.05720138549805, 470.76593017578125, 467.34661865234375, 466.81158447265625
34.25, 34.3036003112793, 470.7589111328125, 467.3424072265625, 466.8073425292969
34.5, 34.55459976196289, 470.7884826660156, 467.37237548828125, 466.8372497558594
34.75, 34.80339813232422, 470.7436828613281, 467.3246154785156, 466.7895202636719
35.0, 35.05659866333008, 470.77099609375, 467.3553466796875, 466.8201904296875
35.25, 35.305198669433594, 470.7732849121094, 467.3567199707031, 466.82159423828125
35.5, 35.55459976196289, 470.7673034667969, 467.3501281738281, 466.81494140625
35.75, 35.79859924316406, 470.774169921875, 467.35650634765625, 466.8212585449219
36.0, 36.05820083618164, 470.79583740234375, 467.3748779296875, 466.839599609375
36.25, 36.30739974975586, 470.75341796875, 467.33154296875, 466.7964782714844
36.5, 36.55139923095703, 470.7794189453125, 467.3603515625, 466.8251953125
36.75, 36.79859924316406, 470.7918395996094, 467.3747863769531, 466.839599609375
37.0, 37.05379867553711, 470.7791748046875, 467.3597717285156, 466.82464599609375
37.25, 37.30120086669922, 470.7504577636719, 467.33282470703125, 466.79779052734375
37.5, 37.54899978637695, 470.7618103027344, 467.3441467285156, 466.80902099609375
37.75, 37.799800872802734, 470.7622985839844, 467.3436279296875, 466.80853271484375
38.0, 38.049198150634766, 470.74639892578125, 467.3307189941406, 466.795654296875
38.25, 38.30039978027344, 470.7533874511719, 467.33477783203125, 466.7996520996094
38.5, 38.549400329589844, 470.7800598144531, 467.3631591796875, 466.8283386230469
38.75, 38.80120086669922, 470.793212890625, 467.3736877441406, 466.8394470214844
39.0, 39.056800842285156, 470.7848205566406, 467.3667297363281, 466.8302001953125
39.25, 39.29840087890625, 470.81829833984375, 467.4022216796875, 466.8675842285156
39.5, 39.553199768066406, 470.7414245605469, 467.3226318359375, 466.7871398925781
39.75, 39.80379867553711, 470.81964111328125, 467.4029541015625, 466.867431640625
40.0, 40.05039978027344, 470.78997802734375, 467.372314453125, 466.83636474609375
40.25, 40.30739974975586, 470.7564392089844, 467.338623046875, 466.8049011230469
40.5, 40.55540084838867, 470.7700500488281, 467.354248046875, 466.81890869140625
40.75, 40.806400299072266, 470.76190185546875, 467.3457336425781, 466.80975341796875
41.0, 41.055198669433594, 470.7618408203125, 467.3459777832031, 466.8099060058594
41.25, 41.297401428222656, 470.8099060058594, 467.3929138183594, 466.8580017089844
41.5, 41.556400299072266, 470.76324462890625, 467.3455810546875, 466.8110046386719
41.75, 41.79880142211914, 470.7882080078125, 467.3739318847656, 466.8371276855469
42.0, 42.04899978637695, 470.7429504394531, 467.3254089355469, 466.79119873046875
42.25, 42.30120086669922, 470.7621154785156, 467.34490966796875, 466.80767822265625
42.5, 42.54999923706055, 470.7712707519531, 467.3552551269531, 466.82037353515625
42.75, 42.79859924316406, 470.72552490234375, 467.3077087402344, 466.7734680175781
43.0, 43.05459976196289, 470.78631591796875, 467.36962890625, 466.83404541015625
43.25, 43.306400299072266, 470.7971496582031, 467.37957763671875, 466.84564208984375
43.5, 43.54899978637695, 470.7515563964844, 467.3361511230469, 466.7998352050781
43.75, 43.79859924316406, 470.79718017578125, 467.3795166015625, 466.8446044921875
44.0, 44.04779815673828, 470.7630310058594, 467.3453674316406, 466.8094177246094
44.25, 44.29840087890625, 470.7629089355469, 467.3460693359375, 466.81085205078125
44.5, 44.549198150634766, 470.81573486328125, 467.3974304199219, 466.86248779296875
44.75, 44.80400085449219, 470.7781982421875, 467.3589172363281, 466.82440185546875
45.0, 45.05379867553711, 470.7845458984375, 467.3675537109375, 466.83203125
45.25, 45.29859924316406, 477.1434020996094, 473.6751403808594, 475.6101379394531
45.5, 45.55799865722656, 474.32366943359375, 470.89349365234375, 475.7253112792969
45.75, 45.80619812011719, 473.9825439453125, 470.5548400878906, 475.82379150390625
46.0, 46.056800842285156, 474.0705871582031, 470.6440734863281, 475.649169921875
46.25, 46.29759979248047, 474.2824401855469, 470.8572082519531, 475.4443664550781
46.5, 46.55759811401367, 474.4754638671875, 471.045166015625, 475.227294921875
46.75, 46.799598693847656, 474.6065368652344, 471.1766357421875, 475.04412841796875
47.0, 47.05720138549805, 474.7379150390625, 471.30914306640625, 474.9081115722656
47.25, 47.30400085449219, 474.8565673828125, 471.4256591796875, 474.82769775390625
47.5, 47.556400299072266, 474.89031982421875, 471.457763671875, 474.7258605957031
47.75, 47.79859924316406, 474.9570617675781, 471.5252990722656, 474.6785888671875
48.0, 48.049400329589844, 475.0089111328125, 471.57794189453125, 474.657958984375
48.25, 48.30739974975586, 475.0541076660156, 471.6210632324219, 474.6568603515625
48.5, 48.54899978637695, 475.03985595703125, 471.60711669921875, 474.61669921875
48.75, 48.80139923095703, 475.0704650878906, 471.63763427734375, 474.63623046875
49.0, 49.05440139770508, 475.0739440917969, 471.6413879394531, 474.641357421875
49.25, 49.30400085449219, 475.0693054199219, 471.6347961425781, 474.6487121582031
49.5, 49.555599212646484, 475.08575439453125, 471.6507873535156, 474.6789855957031
49.75, 49.80580139160156, 475.07275390625, 471.63824462890625, 474.6806335449219
50.0, 50.056400299072266, 475.04754638671875, 471.6156921386719, 474.68255615234375
50.25, 50.302398681640625, 475.0497741699219, 471.6167907714844, 474.7051696777344
50.5, 50.55039978027344, 475.0423278808594, 471.6107177734375, 474.7105712890625
50.75, 50.79819869995117, 475.01568603515625, 471.5853576660156, 474.70263671875
51.0, 51.049198150634766, 475.0255126953125, 471.5892028808594, 474.724609375
51.25, 51.303199768066406, 475.0305480957031, 471.5979919433594, 474.7395324707031
51.5, 51.55039978027344, 475.0120544433594, 471.5793762207031, 474.731689453125
51.75, 51.80699920654297, 475.0287780761719, 471.594970703125, 474.75384521484375
52.0, 52.05160140991211, 475.0008239746094, 471.56890869140625, 474.7316589355469
52.25, 52.30619812011719, 475.0137023925781, 471.5821838378906, 474.7448425292969
52.5, 52.55400085449219, 475.044921875, 471.6138916015625, 474.7251281738281
52.75, 52.80720138549805, 475.0731506347656, 471.6412048339844, 474.7130126953125
53.0, 53.056400299072266, 475.09332275390625, 471.6587219238281, 474.7176208496094
53.25, 53.305999755859375, 475.07708740234375, 471.6431884765625, 474.709228515625
53.5, 53.55440139770508, 475.0896301269531, 471.6558532714844, 474.74462890625
53.75, 53.80459976196289, 475.06988525390625, 471.63616943359375, 474.7538757324219
54.0, 54.05659866333008, 475.0624084472656, 471.6286315917969, 474.7783508300781
54.25, 54.305999755859375, 475.0364990234375, 471.6058044433594, 474.7847595214844
54.5, 54.54859924316406, 475.0325012207031, 471.60015869140625, 474.8108215332031
54.75, 54.80659866333008, 475.04388427734375, 471.6087341308594, 474.8472595214844
55.0, 55.05379867553711, 475.00946044921875, 471.57598876953125, 474.8369445800781
55.25, 55.30120086669922, 475.001220703125, 471.56768798828125, 474.8492736816406
55.5, 55.55619812011719, 475.0046081542969, 471.5709533691406, 474.8698425292969
55.75, 55.799800872802734, 474.9958190917969, 471.56231689453125, 474.8734436035156
56.0, 56.056400299072266, 474.9767761230469, 471.5439758300781, 474.86614990234375
56.25, 56.29819869995117, 474.97314453125, 471.5396728515625, 474.864990234375
56.5, 56.54899978637695, 474.96270751953125, 471.5307922363281, 474.8615417480469
56.75, 56.80720138549805, 474.9814147949219, 471.547119140625, 474.8825378417969
57.0, 57.049598693847656, 474.9627685546875, 471.52825927734375, 474.8647766113281
57.25, 57.30739974975586, 474.9698791503906, 471.5380554199219, 474.8765869140625
57.5, 57.54880142211914, 474.9749450683594, 471.5415954589844, 474.87762451171875
57.75, 57.80059814453125, 474.9655456542969, 471.533447265625, 474.8670654296875
58.0, 58.05459976196289, 474.9731750488281, 471.5398864746094, 474.8695983886719
58.25, 58.30099868774414, 474.9761047363281, 471.5418395996094, 474.86968994140625
58.5, 58.555198669433594, 474.9740905761719, 471.5384826660156, 474.8662414550781
58.75, 58.80400085449219, 474.9741516113281, 471.5412292480469, 474.86370849609375
59.0, 59.05720138549805, 474.9883728027344, 471.5536804199219, 474.873046875
59.25, 59.30099868774414, 474.95892333984375, 471.5265197753906, 474.8498229980469
59.5, 59.55120086669922, 475.0010070800781, 471.56756591796875, 474.8888854980469
59.75, 59.79819869995117, 474.96356201171875, 471.53173828125, 474.8540344238281
