Time, Timer, measurement1.Three-phase Meter1.VLn_RMS, measurement2.Three-phase Meter2.VLn_RMS, measurement3.Three-phase Meter3.VLn_RMS
0.25, 0.29499998688697815, 470.28729248046875, 466.695556640625, 466.2677917480469
0.5, 0.5442000031471252, 468.84197998046875, 465.26031494140625, 464.83099365234375
0.75, 0.805400013923645, 468.7908020019531, 465.20941162109375, 464.7802429199219
1.0, 1.042199969291687, 469.14349365234375, 465.5557861328125, 465.1217956542969
1.25, 1.2998000383377075, 469.0054931640625, 465.4190368652344, 464.9851379394531
1.5, 1.5440000295639038, 469.84375, 466.2539978027344, 465.82318115234375
1.75, 1.801200032234192, 469.795654296875, 466.24664306640625, 465.7921447753906
2.0, 2.050800085067749, 469.6793518066406, 466.2051086425781, 465.6999206542969
2.25, 2.3024001121520996, 469.2032470703125, 465.7267761230469, 465.2173156738281
2.5, 2.549799919128418, 469.26116943359375, 465.84100341796875, 465.3033752441406
2.75, 2.8024001121520996, 469.3509216308594, 465.9864807128906, 465.42926025390625
3.0, 3.0515999794006348, 469.09552001953125, 465.6933898925781, 465.1524658203125
3.25, 3.296999931335449, 469.36016845703125, 465.9909973144531, 465.4393005371094
3.5, 3.549999952316284, 469.2853698730469, 465.88916015625, 465.3492431640625
3.75, 3.7973999977111816, 467.6469421386719, 464.17437744140625, 463.6722106933594
4.0, 4.044000148773193, 469.2215576171875, 465.7701110839844, 465.2500305175781
4.25, 4.30019998550415, 469.8931579589844, 466.5097961425781, 465.96405029296875
4.5, 4.54580020904541, 469.3125, 465.93963623046875, 465.3869323730469
4.75, 4.793799877166748, 469.1217346191406, 465.71600341796875, 465.17828369140625
5.0, 5.047399997711182, 469.2244567871094, 465.7355041503906, 465.2314758300781
5.25, 5.293799877166748, 469.3404541015625, 465.9144287109375, 465.3819274902344
5.5, 5.543399810791016, 469.2672119140625, 465.90301513671875, 465.3465881347656
5.75, 5.7932000160217285, 469.22705078125, 465.83502197265625, 465.28961181640625
6.0, 6.042200088500977, 470.1214599609375, 466.738037109375, 466.188232421875
6.25, 6.293399810791016, 469.3014221191406, 465.9115905761719, 465.36932373046875
6.5, 6.541999816894531, 469.2792663574219, 465.77850341796875, 465.2530517578125
6.75, 6.791399955749512, 469.3858642578125, 465.9158020019531, 465.40423583984375
7.0, 7.041999816894531, 469.3982238769531, 465.98394775390625, 465.44549560546875
7.25, 7.291600227355957, 469.30462646484375, 465.9407653808594, 465.3858947753906
7.5, 7.543000221252441, 469.14404296875, 465.7467041015625, 465.2054748535156
7.75, 7.791399955749512, 469.1862487792969, 465.6940612792969, 465.194580078125
8.0, 8.041999816894531, 469.3710021972656, 465.9364318847656, 465.40533447265625
8.25, 8.292400360107422, 470.0667419433594, 466.6900939941406, 466.1331787109375
8.5, 8.541999816894531, 469.2211608886719, 465.8370056152344, 465.2888488769531
8.75, 8.790800094604492, 468.70556640625, 465.2420959472656, 464.71429443359375
9.0, 9.043000221252441, 469.3987731933594, 465.93426513671875, 465.4153747558594
9.25, 9.29539966583252, 469.4142150878906, 465.99871826171875, 465.4578857421875
9.5, 9.541799545288086, 469.3743896484375, 466.0133972167969, 465.45513916015625
9.75, 9.791600227355957, 469.1623840332031, 465.7607116699219, 465.21966552734375
10.0, 10.04259967803955, 469.38580322265625, 466.018798828125, 465.4671630859375
10.25, 10.291799545288086, 469.3502502441406, 465.9534606933594, 465.4137878417969
10.5, 10.5447998046875, 467.8089599609375, 464.3387145996094, 463.8387451171875
10.75, 10.792200088500977, 470.06011962890625, 466.6900329589844, 466.1369934082031
11.0, 11.042799949645996, 468.80157470703125, 465.3898620605469, 464.8495178222656
11.25, 11.292200088500977, 469.12652587890625, 465.6944580078125, 465.1690673828125
11.5, 11.542200088500977, 469.2531433105469, 465.84356689453125, 465.3080139160156
11.75, 11.79319953918457, 469.32745361328125, 465.85174560546875, 465.34002685546875
12.0, 12.043999671936035, 469.3708801269531, 465.9509582519531, 465.41302490234375
12.25, 12.291199684143066, 469.274658203125, 465.9142150878906, 465.3562927246094
12.5, 12.543600082397461, 469.1696472167969, 465.7752990722656, 465.2314453125
12.75, 12.794400215148926, 469.6842346191406, 466.3038330078125, 465.7535400390625
13.0, 13.044400215148926, 469.3619384765625, 465.9673767089844, 465.429443359375
13.25, 13.29419994354248, 467.1722412109375, 463.72528076171875, 463.2126159667969
13.5, 13.543600082397461, 469.2896728515625, 465.826171875, 465.3116455078125
13.75, 13.792799949645996, 469.30999755859375, 465.8927001953125, 465.3529968261719
14.0, 14.043800354003906, 469.46063232421875, 466.0914001464844, 465.53765869140625
14.25, 14.291399955749512, 469.23388671875, 465.8309631347656, 465.2923583984375
14.5, 14.54419994354248, 469.1677551269531, 465.67156982421875, 465.1723937988281
14.75, 14.794599533081055, 469.33453369140625, 465.90283203125, 465.3701171875
15.0, 15.043600082397461, 469.4979553222656, 466.1317443847656, 465.57464599609375
15.25, 15.293399810791016, 469.19476318359375, 465.8073425292969, 465.26080322265625
15.5, 15.542799949645996, 467.57080078125, 464.11773681640625, 463.5983581542969
15.75, 15.791000366210938, 469.30908203125, 465.8506774902344, 465.3306579589844
16.0, 16.042800903320312, 469.0108642578125, 465.5887145996094, 465.0492248535156
16.25, 16.29319953918457, 469.3426818847656, 465.9722595214844, 465.41741943359375
16.5, 16.545000076293945, 469.1775207519531, 465.7731628417969, 465.2329406738281
16.75, 16.794599533081055, 469.3540954589844, 465.9858703613281, 465.4339599609375
17.0, 17.050600051879883, 469.2296142578125, 465.8307800292969, 465.2926025390625
17.25, 17.29159927368164, 468.4202575683594, 464.9280700683594, 464.43328857421875
17.5, 17.54159927368164, 469.4480285644531, 466.00531005859375, 465.47906494140625
17.75, 17.801799774169922, 470.37506103515625, 466.9925842285156, 466.4393615722656
18.0, 18.04360008239746, 469.28271484375, 465.9035949707031, 465.3536376953125
18.25, 18.292600631713867, 470.0188903808594, 466.6295471191406, 466.0848083496094
18.5, 18.54520034790039, 469.26531982421875, 465.787353515625, 465.28082275390625
18.75, 18.791000366210938, 471.5086975097656, 468.1573791503906, 467.5957946777344
19.0, 19.042200088500977, 468.94195556640625, 465.51312255859375, 464.9843444824219
19.25, 19.29439926147461, 469.1862487792969, 465.760986328125, 465.23114013671875
19.5, 19.543800354003906, 469.73095703125, 466.3589782714844, 465.8077087402344
19.75, 19.79360008239746, 469.43084716796875, 466.0396728515625, 465.4982604980469
20.0, 20.042999267578125, 467.18511962890625, 463.72930908203125, 463.2200927734375
20.25, 20.292200088500977, 469.4540100097656, 465.9935302734375, 465.4753723144531
20.5, 20.542999267578125, 467.36767578125, 463.9626159667969, 463.427978515625
20.75, 20.791799545288086, 469.359619140625, 465.9880065917969, 465.4356689453125
21.0, 21.04360008239746, 469.1409606933594, 465.7372741699219, 465.19970703125
21.25, 21.292600631713867, 469.31396484375, 465.8155517578125, 465.315673828125
21.5, 21.542200088500977, 469.42071533203125, 465.99493408203125, 465.459716796875
21.75, 21.792600631713867, 469.5222473144531, 466.1595153808594, 465.60107421875
22.0, 22.042800903320312, 469.2370300292969, 465.848388671875, 465.3027038574219
22.25, 22.293800354003906, 467.74029541015625, 464.0199890136719, 463.508056640625
22.5, 22.54199981689453, 469.426513671875, 465.973388671875, 465.449462890625
22.75, 22.79400062561035, 466.9724426269531, 463.59234619140625, 463.05267333984375
23.0, 23.04360008239746, 469.3893737792969, 466.0173645019531, 465.4637145996094
23.25, 23.292999267578125, 469.181884765625, 465.77923583984375, 465.23846435546875
23.5, 23.542999267578125, 469.4360656738281, 466.064697265625, 465.51446533203125
23.75, 23.791200637817383, 469.364013671875, 465.96514892578125, 465.42724609375
24.0, 24.042999267578125, 468.7630615234375, 465.27093505859375, 464.7730712890625
24.25, 24.291400909423828, 469.3483581542969, 465.912353515625, 465.38336181640625
24.5, 24.542600631713867, 470.39569091796875, 467.0157165527344, 466.4611511230469
24.75, 24.793399810791016, 469.27227783203125, 465.89013671875, 465.3418884277344
25.0, 25.041799545288086, 471.69989013671875, 468.2151794433594, 467.68048095703125
25.25, 25.292200088500977, 469.3845520019531, 465.9163818359375, 465.401123046875
25.5, 25.5447998046875, 469.42431640625, 466.0059814453125, 465.4679260253906
25.75, 25.791400909423828, 469.43426513671875, 466.0728759765625, 465.5145263671875
26.0, 26.042800903320312, 469.2320861816406, 465.83197021484375, 465.29071044921875
26.25, 26.29159927368164, 469.4915466308594, 466.12091064453125, 465.5701599121094
26.5, 26.541799545288086, 469.34466552734375, 465.9494934082031, 465.4100646972656
26.75, 26.792999267578125, 471.85052490234375, 468.4324035644531, 467.90069580078125
27.0, 27.043800354003906, 470.8748779296875, 467.4789123535156, 466.936767578125
27.25, 27.292400360107422, 468.79779052734375, 465.3494567871094, 464.8258972167969
27.5, 27.543399810791016, 469.2784118652344, 465.808837890625, 465.2999572753906
27.75, 27.79360008239746, 469.35064697265625, 465.9368896484375, 465.40228271484375
28.0, 28.042800903320312, 469.2432861328125, 465.7630920410156, 465.2528076171875
28.25, 28.290800094604492, 469.3424377441406, 465.9173583984375, 465.3808288574219
28.5, 28.542600631713867, 469.27606201171875, 465.9180908203125, 465.3586120605469
28.75, 28.792999267578125, 469.209716796875, 465.8179016113281, 465.27239990234375
29.0, 29.042400360107422, 469.9794921875, 466.6038818359375, 466.05316162109375
29.25, 29.290800094604492, 469.3456115722656, 465.9590759277344, 465.41522216796875
29.5, 29.543800354003906, 468.1699523925781, 464.7308349609375, 464.20989990234375
29.75, 29.792400360107422, 469.30181884765625, 465.83062744140625, 465.3201599121094
30.0, 30.0447998046875, 469.2837219238281, 465.86761474609375, 465.33087158203125
30.25, 30.292400360107422, 469.37530517578125, 466.01123046875, 465.45501708984375
30.5, 30.54400062561035, 469.16619873046875, 465.7642517089844, 465.2250061035156
30.75, 30.79439926147461, 469.1949768066406, 465.6933898925781, 465.1954040527344
31.0, 31.04360008239746, 469.4539489746094, 466.01953125, 465.4869079589844
31.25, 31.290800094604492, 469.9505920410156, 466.5821838378906, 466.02490234375
31.5, 31.542800903320312, 469.3482971191406, 465.9643859863281, 465.4159851074219
31.75, 31.7947998046875, 470.3283996582031, 466.9361267089844, 466.3896484375
32.0, 32.04199981689453, 469.4316711425781, 466.0513916015625, 465.5052490234375
32.25, 32.29240036010742, 469.3290100097656, 465.9222717285156, 465.3880310058594
32.5, 32.542999267578125, 469.4029541015625, 465.9088439941406, 465.4085388183594
32.75, 32.79140090942383, 469.4881591796875, 466.0670166015625, 465.531494140625
33.0, 33.04180145263672, 469.3448791503906, 465.9825744628906, 465.4280090332031
33.25, 33.29199981689453, 469.22723388671875, 465.8343505859375, 465.2911682128906
33.5, 33.54399871826172, 468.225341796875, 464.7406311035156, 464.240234375
33.75, 33.79159927368164, 469.36993408203125, 465.91912841796875, 465.3962097167969
34.0, 34.04159927368164, 469.8326416015625, 466.4420471191406, 465.8936767578125
34.25, 34.292598724365234, 469.304931640625, 465.9307556152344, 465.37847900390625
34.5, 34.542598724365234, 469.19451904296875, 465.78546142578125, 465.2465515136719
34.75, 34.79100036621094, 467.51873779296875, 464.07562255859375, 463.57708740234375
35.0, 35.04159927368164, 471.322021484375, 467.9737548828125, 467.4136047363281
35.25, 35.29399871826172, 468.8275146484375, 465.3413391113281, 464.8416748046875
35.5, 35.54180145263672, 469.2117004394531, 465.7707214355469, 465.24700927734375
35.75, 35.79140090942383, 469.76800537109375, 466.40142822265625, 465.84808349609375
36.0, 36.0432014465332, 469.2934265136719, 465.90740966796875, 465.363525390625
36.25, 36.292598724365234, 467.3227233886719, 463.8742370605469, 463.3623046875
36.5, 36.542598724365234, 469.33319091796875, 465.8653564453125, 465.35186767578125
36.75, 36.79180145263672, 468.8079528808594, 465.4068908691406, 464.8736572265625
37.0, 37.04399871826172, 469.37799072265625, 466.0097961425781, 465.4555358886719
37.25, 37.293399810791016, 469.12615966796875, 465.72357177734375, 465.18609619140625
37.5, 37.54100036621094, 469.3396911621094, 465.8460388183594, 465.34356689453125
37.75, 37.79180145263672, 469.446044921875, 466.0154724121094, 465.4819641113281
38.0, 38.0447998046875, 469.6731262207031, 466.3096618652344, 465.75146484375
38.25, 38.2932014465332, 469.2666320800781, 465.88067626953125, 465.33306884765625
38.5, 38.54180145263672, 470.5838928222656, 467.1935119628906, 466.6471252441406
38.75, 38.79119873046875, 469.47442626953125, 466.0917053222656, 465.546630859375
39.0, 39.042598724365234, 470.5254821777344, 467.09356689453125, 466.5564270019531
39.25, 39.293399810791016, 469.3454284667969, 465.856689453125, 465.3553161621094
39.5, 39.5432014465332, 469.4161376953125, 465.9971618652344, 465.460693359375
39.75, 39.79240036010742, 469.4337463378906, 466.0729675292969, 465.515869140625
40.0, 40.04199981689453, 469.267333984375, 465.8684997558594, 465.32830810546875
40.25, 40.29059982299805, 468.4977111816406, 465.0008544921875, 464.50396728515625
40.5, 40.5432014465332, 469.32208251953125, 465.8785400390625, 465.3522644042969
40.75, 40.793399810791016, 470.51898193359375, 467.13507080078125, 466.58184814453125
41.0, 41.04359817504883, 469.288818359375, 465.91229248046875, 465.361328125
41.25, 41.29140090942383, 471.437744140625, 467.9960632324219, 467.4542236328125
41.5, 41.54399871826172, 469.28875732421875, 465.80865478515625, 465.2984924316406
41.75, 41.79180145263672, 469.3790283203125, 465.95928955078125, 465.42041015625
42.0, 42.04180145263672, 469.26922607421875, 465.90802001953125, 465.3500061035156
42.25, 42.29359817504883, 469.1617126464844, 465.7663879394531, 465.2221984863281
42.5, 42.54240036010742, 469.4921875, 466.12255859375, 465.57098388671875
42.75, 42.79439926147461, 469.2733154296875, 465.8817443847656, 465.34051513671875
43.0, 43.04100036621094, 465.9601745605469, 462.5288391113281, 462.0129699707031
43.25, 43.29399871826172, 469.3244323730469, 465.84600830078125, 465.3369140625
43.5, 43.543800354003906, 467.5799255371094, 464.18646240234375, 463.64776611328125
43.75, 43.792198181152344, 469.3772888183594, 466.0075988769531, 465.4538269042969
44.0, 44.04240036010742, 469.1854248046875, 465.7824401855469, 465.2437744140625
44.25, 44.29280090332031, 469.30877685546875, 465.8084411621094, 465.30926513671875
44.5, 44.542598724365234, 469.42205810546875, 465.9920654296875, 465.4578552246094
44.75, 44.79280090332031, 469.4759521484375, 466.1171875, 465.55804443359375
45.0, 45.04280090332031, 469.2577819824219, 465.8687438964844, 465.3225402832031
45.25, 45.293800354003906, 470.42071533203125, 467.0379943847656, 466.4891662597656
45.5, 45.54119873046875, 469.43756103515625, 466.05242919921875, 465.50830078125
45.75, 45.79119873046875, 471.24371337890625, 467.8074035644531, 467.2768249511719
46.0, 46.04460144042969, 469.3818359375, 465.9021301269531, 465.3947448730469
46.25, 46.29199981689453, 469.4537048339844, 466.0345764160156, 465.4979248046875
46.5, 46.54199981689453, 469.3631286621094, 465.9959411621094, 465.442626953125
46.75, 46.793399810791016, 469.2725524902344, 465.87445068359375, 465.33380126953125
47.0, 47.04280090332031, 468.83685302734375, 465.3336181640625, 464.8382568359375
47.25, 47.2932014465332, 469.34814453125, 465.9104919433594, 465.3813781738281
47.5, 47.543399810791016, 470.2889404296875, 466.9156188964844, 466.359375
47.75, 47.7932014465332, 469.28338623046875, 465.9039611816406, 465.3531494140625
48.0, 48.04159927368164, 469.7124328613281, 466.2809753417969, 465.7487487792969
48.25, 48.29140090942383, 469.2785949707031, 465.80865478515625, 465.2941589355469
48.5, 48.5447998046875, 469.3569641113281, 465.94061279296875, 465.40020751953125
48.75, 48.7942008972168, 469.32427978515625, 465.960693359375, 465.4022216796875
49.0, 49.042598724365234, 469.1716003417969, 465.7729187011719, 465.2303466796875
49.25, 49.29079818725586, 469.34503173828125, 465.9764099121094, 465.4263610839844
49.5, 49.542598724365234, 469.2511901855469, 465.8592529296875, 465.3168640136719
49.75, 49.792198181152344, 467.6006774902344, 464.12213134765625, 463.623046875
50.0, 50.04359817504883, 469.3849792480469, 465.9326171875, 465.4116516113281
50.25, 50.292598724365234, 468.1186218261719, 464.7261657714844, 464.18402099609375
50.5, 50.54460144042969, 469.3104248046875, 465.9380187988281, 465.3857727050781
50.75, 50.792999267578125, 469.1502380371094, 465.74658203125, 465.208251953125
51.0, 51.04159927368164, 471.8943786621094, 468.5320129394531, 467.97802734375
51.25, 51.292198181152344, 470.9161071777344, 467.54205322265625, 466.99456787109375
51.5, 51.542598724365234, 468.6354064941406, 465.105712890625, 464.629150390625
51.75, 51.79180145263672, 469.3074951171875, 465.8649597167969, 465.3440856933594
52.0, 52.043399810791016, 470.0617980957031, 466.68658447265625, 466.13787841796875
52.25, 52.29240036010742, 469.24755859375, 465.86492919921875, 465.32086181640625
52.5, 52.543399810791016, 468.9161071777344, 465.48291015625, 464.956298828125
52.75, 52.792198181152344, 469.3296203613281, 465.8519592285156, 465.3447570800781
53.0, 53.0432014465332, 469.3963928222656, 465.9814453125, 465.4437561035156
53.25, 53.292598724365234, 469.3583984375, 465.99481201171875, 465.4394226074219
53.5, 53.5432014465332, 469.1522521972656, 465.75140380859375, 465.2124938964844
53.75, 53.793800354003906, 469.1393737792969, 465.6373291015625, 465.1377258300781
54.0, 54.04359817504883, 469.51214599609375, 466.0785217285156, 465.5470275878906
54.25, 54.29199981689453, 470.14788818359375, 466.77581787109375, 466.224853515625
54.5, 54.54159927368164, 469.2919921875, 465.9059753417969, 465.35992431640625
54.75, 54.79140090942383, 468.5016784667969, 465.0627746582031, 464.5492858886719
55.0, 55.0447998046875, 469.4176940917969, 465.9529724121094, 465.43463134765625
55.25, 55.29159927368164, 469.4082946777344, 465.9933166503906, 465.45220947265625
55.5, 55.542198181152344, 469.4017639160156, 466.0352478027344, 465.47808837890625
55.75, 55.792598724365234, 469.27825927734375, 465.87811279296875, 465.3354797363281
56.0, 56.043800354003906, 469.48748779296875, 466.1198425292969, 465.5677795410156
56.25, 56.29280090332031, 469.3841552734375, 465.9855041503906, 465.4468688964844
56.5, 56.54499816894531, 467.9374694824219, 464.4472961425781, 463.9447326660156
56.75, 56.79399871826172, 469.3770751953125, 465.9271240234375, 465.4032897949219
57.0, 57.042198181152344, 470.2744140625, 466.8865051269531, 466.33056640625
57.25, 57.29159927368164, 469.3960266113281, 466.0210266113281, 465.4690246582031
57.5, 57.54240036010742, 469.2883605957031, 465.8840026855469, 465.35101318359375
57.75, 57.79280090332031, 469.2715759277344, 465.7870178222656, 465.2813415527344
58.0, 58.04280090332031, 469.3497619628906, 465.930908203125, 465.3923034667969
58.25, 58.290199279785156, 469.35260009765625, 465.99212646484375, 465.4328308105469
58.5, 58.54140090942383, 469.2119140625, 465.8187561035156, 465.2745361328125
58.75, 58.793399810791016, 469.7352294921875, 466.3572692871094, 465.8140869140625
59.0, 59.043800354003906, 472.2190246582031, 468.8350830078125, 468.46295166015625
59.25, 59.29079818725586, 466.36529541015625, 462.93939208984375, 462.4466552734375
59.5, 59.54199981689453, 469.3742370605469, 465.8584899902344, 465.3706359863281
59.75, 59.79159927368164, 469.2201232910156, 465.8043212890625, 465.28271484375
60.0, 60.04180145263672, 469.4124755859375, 466.0462951660156, 465.4913024902344
