Time, Timer, measurement1.Three-phase Meter1.VLn_RMS, measurement2.Three-phase Meter2.VLn_RMS, measurement3.Three-phase Meter3.VLn_RMS
0.25, 0.30000001192092896, 438.2779541015625, 434.9239196777344, 434.5325012207031
0.5, 0.5550000071525574, 643.6405639648438, 638.7412719726562, 638.1734008789062
0.75, 0.8130000233650208, 488.5572509765625, 484.8255615234375, 484.3912048339844
1.0, 1.0628000497817993, 240.46473693847656, 238.5784149169922, 238.3611602783203
1.25, 1.3049999475479126, 451.2316589355469, 447.78399658203125, 447.3827209472656
1.5, 1.555799961090088, 604.732177734375, 600.1303100585938, 599.5982055664062
1.75, 1.8140000104904175, 484.7281799316406, 481.0862121582031, 480.6099548339844
2.0, 2.055799961090088, 279.5645446777344, 277.44586181640625, 277.1588134765625
2.25, 2.316200017929077, 456.2298583984375, 452.8855285644531, 452.3899230957031
2.5, 2.5757999420166016, 566.1354370117188, 562.043212890625, 561.4112548828125
2.75, 2.816800117492676, 481.41033935546875, 477.9283447265625, 477.3816223144531
3.0, 3.0673999786376953, 353.68896484375, 351.09564208984375, 350.697509765625
3.25, 3.319000005722046, 464.547119140625, 461.1656188964844, 460.649658203125
3.5, 3.5666000843048096, 543.195068359375, 539.2788696289062, 538.6649780273438
3.75, 3.8157999515533447, 476.705322265625, 473.2619934082031, 472.7218322753906
4.0, 4.0665998458862305, 393.86590576171875, 390.99163818359375, 390.55126953125
4.25, 4.317399978637695, 826.1998291015625, 820.0448608398438, 819.2728271484375
4.5, 4.575200080871582, 511.48382568359375, 507.8031921386719, 507.2220458984375
4.75, 4.824999809265137, 413.3200988769531, 410.46588134765625, 409.9881896972656
5.0, 5.072400093078613, 428.2375793457031, 425.1141357421875, 424.63848876953125
5.25, 5.323999881744385, 769.7953491210938, 764.1354370117188, 763.3222045898438
5.5, 5.565999984741211, 506.4941101074219, 502.8275451660156, 502.2554626464844
5.75, 5.82480001449585, 159.54119873046875, 158.55545043945312, 158.33316040039062
6.0, 6.074399948120117, 439.7414245605469, 436.5379943847656, 436.0482177734375
6.25, 6.323999881744385, 653.5598754882812, 648.8231811523438, 648.1201782226562
6.5, 6.566999912261963, 491.88623046875, 488.3223571777344, 487.7660217285156
6.75, 6.8155999183654785, 257.8218078613281, 255.58944702148438, 255.3018341064453
7.0, 7.067200183868408, 452.0246276855469, 448.68414306640625, 448.1827392578125
7.25, 7.316800117492676, 611.9517211914062, 607.7665405273438, 607.0957641601562
7.5, 7.568600177764893, 483.6042785644531, 480.14599609375, 479.5976257324219
7.75, 7.817200183868408, 327.01568603515625, 324.382080078125, 324.0060119628906
8.0, 8.06820011138916, 460.1979675292969, 456.8154602050781, 456.3057861328125
8.25, 8.316200256347656, 564.4016723632812, 560.6419067382812, 560.0176391601562
8.5, 8.566800117492676, 478.1142578125, 474.6966247558594, 474.15350341796875
8.75, 8.817999839782715, 395.2264709472656, 392.2074890136719, 391.7639465332031
9.0, 9.06719970703125, 759.4737548828125, 748.4962768554688, 747.5352172851562
9.25, 9.31659984588623, 519.6771850585938, 516.001953125, 515.4191284179688
9.5, 9.56719970703125, 400.2483215332031, 397.77972412109375, 397.3249816894531
9.75, 9.81659984588623, 425.9397888183594, 422.7485046386719, 422.3603210449219
10.0, 10.074799537658691, 739.4577026367188, 735.2424926757812, 733.293701171875
10.25, 10.324000358581543, 502.01031494140625, 498.51251220703125, 497.8255310058594
10.5, 10.56719970703125, 187.14251708984375, 185.07733154296875, 185.46878051757812
10.75, 10.81659984588623, 442.6798400878906, 439.3996887207031, 438.9662170410156
11.0, 11.075400352478027, 647.1613159179688, 642.7933959960938, 641.7778930664062
11.25, 11.318400382995605, 490.3385009765625, 486.841796875, 486.248291015625
11.5, 11.567999839782715, 303.3413391113281, 301.1009826660156, 300.7579040527344
11.75, 11.818400382995605, 453.8791198730469, 450.578857421875, 450.0744934082031
12.0, 12.06820011138916, 588.1941528320312, 583.9361572265625, 583.2841186523438
12.25, 12.31760025024414, 482.542724609375, 479.0525817871094, 478.50616455078125
12.5, 12.569199562072754, 359.3236389160156, 356.6903381347656, 356.2874450683594
12.75, 12.818599700927734, 461.3825988769531, 458.0273132324219, 457.51568603515625
13.0, 13.066200256347656, 548.017578125, 544.0637817382812, 543.4508056640625
13.25, 13.315400123596191, 477.2398986816406, 473.78704833984375, 473.24554443359375
13.5, 13.574199676513672, 397.5964660644531, 394.8316345214844, 394.3866271972656
13.75, 13.824799537658691, 867.6378173828125, 860.9201049804688, 860.2305908203125
14.0, 14.067000389099121, 521.388671875, 517.5234985351562, 516.9392700195312
14.25, 14.31659984588623, 402.6290283203125, 402.02081298828125, 401.49798583984375
14.5, 14.56719970703125, 426.1514587402344, 423.1259765625, 422.65106201171875
14.75, 14.816200256347656, 793.8509521484375, 787.7960205078125, 787.0322265625
15.0, 15.074399948120117, 502.9933776855469, 499.2984924316406, 498.7319030761719
15.25, 15.316800117492676, 230.53036499023438, 229.09152221679688, 228.86514282226562
15.5, 15.566200256347656, 443.3464050292969, 440.171875, 439.678955078125
15.75, 15.815199851989746, 642.3343505859375, 637.1324462890625, 636.4230346679688
16.0, 16.06719970703125, 489.4224548339844, 485.80487060546875, 485.25018310546875
16.25, 16.316999435424805, 318.8174743652344, 316.71551513671875, 316.36590576171875
16.5, 16.56999969482422, 455.8061828613281, 452.5302429199219, 452.0190124511719
16.75, 16.81879997253418, 576.989013671875, 572.6567993164062, 572.005126953125
17.0, 17.066200256347656, 480.76409912109375, 477.27435302734375, 476.7278137207031
17.25, 17.31719970703125, 375.948974609375, 373.1856994628906, 372.7677001953125
17.5, 17.566600799560547, 462.4337463378906, 459.0638427734375, 458.5504150390625
17.75, 17.81679916381836, 545.2440185546875, 541.2997436523438, 540.6881713867188
18.0, 18.06679916381836, 475.1952819824219, 471.7601623535156, 471.2211608886719
18.25, 18.321399688720703, 404.91278076171875, 401.9656066894531, 401.5072021484375
18.5, 18.574800491333008, 820.8283081054688, 814.8020629882812, 814.0086669921875
18.75, 18.822799682617188, 509.26177978515625, 505.58758544921875, 505.0070495605469
19.0, 19.066200256347656, 156.06431579589844, 155.21380615234375, 154.9505615234375
19.25, 19.324199676513672, 437.5975646972656, 434.4056396484375, 433.9202575683594
19.5, 19.566600799560547, 705.368896484375, 700.2916870117188, 699.5159912109375
19.75, 19.81679916381836, 497.4237976074219, 493.8322448730469, 493.2679748535156
20.0, 20.067399978637695, 265.3913879394531, 263.4072570800781, 263.10699462890625
20.25, 20.31679916381836, 447.11614990234375, 443.85235595703125, 443.356689453125
20.5, 20.567399978637695, 637.1686401367188, 632.5831298828125, 631.8729248046875
20.75, 20.819000244140625, 485.4814147949219, 481.9704895019531, 481.4210205078125
21.0, 21.066600799560547, 332.3180847167969, 329.8758850097656, 329.49664306640625
21.25, 21.31679916381836, 460.0253601074219, 456.6737060546875, 456.1628723144531
21.5, 21.566600799560547, 566.692626953125, 562.6090698242188, 561.9723510742188
21.75, 21.816600799560547, 477.5171813964844, 474.0650939941406, 473.5238342285156
22.0, 22.06800079345703, 385.82568359375, 383.0031433105469, 382.5711975097656
22.25, 22.321399688720703, 466.8309631347656, 463.3879699707031, 462.8367614746094
22.5, 22.571800231933594, 524.3790283203125, 520.591796875, 519.9986572265625
22.75, 22.823200225830078, 426.1570129394531, 422.728271484375, 422.3287658691406
23.0, 23.074600219726562, 423.6507873535156, 420.4706726074219, 420.0007019042969
23.25, 23.316600799560547, 800.9149780273438, 795.2073364257812, 794.4063110351562
23.5, 23.566999435424805, 511.35235595703125, 501.6059875488281, 501.0361022949219
23.75, 23.825000762939453, 176.0928955078125, 174.08689880371094, 173.8638916015625
24.0, 24.066600799560547, 440.86822509765625, 437.59613037109375, 437.1060485839844
24.25, 24.3164005279541, 697.7365112304688, 693.0733032226562, 692.3137817382812
24.5, 24.567399978637695, 492.3756408691406, 488.8663330078125, 488.3091125488281
24.75, 24.816600799560547, 283.779052734375, 281.3624572753906, 281.0486755371094
25.0, 25.06879997253418, 454.25286865234375, 450.90673828125, 450.4020080566406
25.25, 25.315799713134766, 601.86376953125, 597.7464599609375, 597.084716796875
25.5, 25.574399948120117, 481.5540466308594, 478.1000061035156, 477.5542907714844
25.75, 25.81599998474121, 354.47906494140625, 351.86260986328125, 351.46826171875
26.0, 26.06800079345703, 462.6112365722656, 459.2537841796875, 458.7390441894531
26.25, 26.316600799560547, 544.042724609375, 539.7374267578125, 539.5302734375
26.5, 26.56879997253418, 188.0172576904297, 201.3400115966797, 186.43927001953125
26.75, 26.82379913330078, 446.5316162109375, 443.62017822265625, 442.8363037109375
27.0, 27.074600219726562, 707.2382202148438, 702.9880981445312, 701.4248657226562
27.25, 27.323999404907227, 494.3987121582031, 489.6357727050781, 490.3310241699219
27.5, 27.56599998474121, 257.14727783203125, 256.47003173828125, 255.07936096191406
27.75, 27.823999404907227, 459.5840148925781, 455.21185302734375, 455.7708740234375
28.0, 28.06800079345703, 617.4483642578125, 613.066162109375, 612.3551025390625
28.25, 28.31719970703125, 486.47760009765625, 482.65533447265625, 482.45904541015625
28.5, 28.575000762939453, 385.91961669921875, 382.8752136230469, 382.70916748046875
28.75, 28.816600799560547, 470.3381042480469, 467.89678955078125, 466.42596435546875
29.0, 29.065799713134766, 541.9473876953125, 540.2993774414062, 537.4588623046875
29.25, 29.316600799560547, 323.51971435546875, 331.5489196777344, 321.5637512207031
29.5, 29.56719970703125, 433.39300537109375, 432.444580078125, 429.7740173339844
29.75, 29.819000244140625, 786.1040649414062, 789.3756103515625, 779.6841430664062
30.0, 30.06800079345703, 499.2009582519531, 499.8765563964844, 495.03411865234375
30.25, 30.31719970703125, 258.458251953125, 257.63543701171875, 256.2643737792969
30.5, 30.56559944152832, 457.344482421875, 458.0884094238281, 453.5234375
30.75, 30.81599998474121, 637.9478149414062, 640.58544921875, 632.679931640625
31.0, 31.071199417114258, 486.2317810058594, 487.28704833984375, 482.1726379394531
31.25, 31.32360076904297, 376.84808349609375, 376.6492004394531, 373.6701965332031
31.5, 31.56599998474121, 467.6742858886719, 468.4569091796875, 463.7600402832031
31.75, 31.823999404907227, 545.084716796875, 546.616455078125, 540.5249633789062
32.0, 32.073001861572266, 462.0616455078125, 467.58428955078125, 458.50177001953125
32.25, 32.32400131225586, 425.62139892578125, 426.020263671875, 422.05615234375
32.5, 32.57440185546875, 853.5142211914062, 856.973388671875, 846.4400024414062
32.75, 32.816200256347656, 516.0032958984375, 510.48529052734375, 511.7079162597656
33.0, 33.06840133666992, 220.216552734375, 219.0032196044922, 218.50015258789062
33.25, 33.31520080566406, 444.235595703125, 444.73187255859375, 440.5156555175781
33.5, 33.56700134277344, 706.3877563476562, 709.410888671875, 700.535888671875
33.75, 33.81679916381836, 493.7790222167969, 494.6650695800781, 489.65924072265625
34.0, 34.06959915161133, 296.27813720703125, 295.4595031738281, 293.7318115234375
34.25, 34.316200256347656, 461.15118408203125, 461.67022705078125, 457.28936767578125
34.5, 34.568599700927734, 607.3294067382812, 609.1767578125, 602.2880859375
34.75, 34.81560134887695, 483.47265625, 484.15673828125, 479.4385681152344
35.0, 35.066200256347656, 374.69891357421875, 374.6854248046875, 371.520751953125
35.25, 35.31719970703125, 469.2703857421875, 469.9501037597656, 465.3469543457031
35.5, 35.572601318359375, 540.8853149414062, 542.2109375, 536.3857421875
35.75, 35.82160186767578, 478.034423828125, 478.86138916015625, 474.04595947265625
36.0, 36.0723991394043, 424.73907470703125, 425.3415222167969, 421.1780090332031
36.25, 36.31639862060547, 860.2372436523438, 863.0233154296875, 853.0482788085938
36.5, 36.573001861572266, 510.4632263183594, 511.44000244140625, 506.218017578125
36.75, 36.82460021972656, 222.20904541015625, 222.00804138183594, 220.434814453125
37.0, 37.065799713134766, 446.57135009765625, 447.3976745605469, 442.83056640625
37.25, 37.31679916381836, 713.1513061523438, 715.4197998046875, 707.2693481445312
37.5, 37.56700134277344, 494.4140625, 495.41864013671875, 490.29034423828125
37.75, 37.81660079956055, 279.29925537109375, 279.14837646484375, 276.93359375
38.0, 38.0702018737793, 459.1777648925781, 459.9765319824219, 455.33050537109375
38.25, 38.31639862060547, 633.760009765625, 635.1513061523438, 628.531982421875
38.5, 38.56840133666992, 485.8216247558594, 486.7392272949219, 481.7753601074219
38.75, 38.82440185546875, 365.029541015625, 365.6023254394531, 361.9653015136719
39.0, 39.06700134277344, 466.65826416015625, 467.5425109863281, 462.7542724609375
39.25, 39.31880187988281, 555.1085815429688, 556.2144165039062, 550.4794311523438
39.5, 39.56639862060547, 479.9077453613281, 480.7587890625, 475.91015625
39.75, 39.815799713134766, 407.9847106933594, 408.7929382324219, 404.5599670410156
40.0, 40.07460021972656, 471.69805908203125, 472.7858581542969, 467.7569274902344
40.25, 40.321800231933594, 539.3524169921875, 540.5116577148438, 534.8679809570312
40.5, 40.57120132446289, 503.3996887207031, 503.69659423828125, 498.1893310546875
40.75, 40.82379913330078, 421.5115051269531, 422.21600341796875, 417.9765625
41.0, 41.06660079956055, 844.1697387695312, 846.0591430664062, 836.2528686523438
41.25, 41.322601318359375, 518.5319213867188, 519.6173095703125, 514.2124633789062
41.5, 41.56740188598633, 218.4070281982422, 218.26925659179688, 216.5255126953125
41.75, 41.816200256347656, 441.5042724609375, 442.3772888183594, 437.8140869140625
42.0, 42.065799713134766, 726.7088012695312, 728.4060668945312, 720.7420043945312
42.25, 42.315799713134766, 499.962890625, 500.8937683105469, 495.7999572753906
42.5, 42.56719970703125, 269.2768249511719, 269.5251159667969, 266.89990234375
42.75, 42.81700134277344, 455.0610046386719, 455.91229248046875, 451.254150390625
43.0, 43.06679916381836, 628.9419555664062, 630.3282470703125, 623.7532348632812
43.25, 43.31660079956055, 487.9793701171875, 488.9380187988281, 483.9112243652344
43.5, 43.56880187988281, 349.3451843261719, 349.9615783691406, 346.1794738769531
43.75, 43.816001892089844, 463.43212890625, 464.5051574707031, 459.52484130859375
44.0, 44.06700134277344, 598.330810546875, 599.8447265625, 593.5784301757812
44.25, 44.31639862060547, 484.43145751953125, 485.4976806640625, 480.4288024902344
44.5, 44.56719970703125, 372.2554626464844, 372.9698791503906, 368.9463195800781
44.75, 44.82440185546875, 469.3512878417969, 470.3233642578125, 465.414306640625
45.0, 45.07160186767578, 555.186279296875, 556.3569946289062, 550.7119140625
45.25, 45.316200256347656, 478.424072265625, 479.32391357421875, 474.4552001953125
45.5, 45.573001861572266, 418.896484375, 419.68890380859375, 415.2885437011719
45.75, 45.82379913330078, 918.5226440429688, 920.5093994140625, 906.1907348632812
46.0, 46.075199127197266, 517.9931640625, 518.9943237304688, 513.7656860351562
46.25, 46.32460021972656, 280.00177001953125, 281.03271484375, 284.39453125
46.5, 46.56700134277344, 433.6871643066406, 434.59222412109375, 429.97698974609375
46.75, 46.816001892089844, 782.2767944335938, 784.3161010742188, 777.6048583984375
47.0, 47.06740188598633, 499.1663818359375, 500.2265319824219, 495.11505126953125
47.25, 47.31840133666992, 244.4871063232422, 244.68466186523438, 241.676025390625
47.5, 47.56719970703125, 455.3159484863281, 456.19769287109375, 451.4610290527344
47.75, 47.815799713134766, 675.7437133789062, 677.310302734375, 670.47998046875
48.0, 48.06679916381836, 490.2312927246094, 491.19403076171875, 486.1744689941406
48.25, 48.31880187988281, 309.3591003417969, 309.7546691894531, 306.4477844238281
48.5, 48.566001892089844, 462.89593505859375, 463.80133056640625, 458.9944152832031
48.75, 48.81700134277344, 598.0111083984375, 599.2896118164062, 593.239501953125
49.0, 49.071998596191406, 482.78546142578125, 483.65692138671875, 478.77685546875
49.25, 49.321998596191406, 381.4447326660156, 382.3367004394531, 378.2466125488281
49.5, 49.56660079956055, 467.3854675292969, 468.48138427734375, 463.47894287109375
49.75, 49.81679916381836, 574.1749267578125, 575.3147583007812, 569.4010620117188
50.0, 50.06639862060547, 480.0993347167969, 480.9468688964844, 476.0843505859375
50.25, 50.316001892089844, 405.28826904296875, 393.7843933105469, 401.8929138183594
50.5, 50.565399169921875, 470.6552429199219, 471.6093444824219, 466.7091979980469
50.75, 50.82419967651367, 532.7642211914062, 533.8010864257812, 528.3260498046875
51.0, 51.06679916381836, 462.3457336425781, 463.4452209472656, 458.6908874511719
51.25, 51.31639862060547, 426.79656982421875, 427.7294006347656, 423.217529296875
51.5, 51.56800079345703, 851.6847534179688, 853.7705688476562, 844.7230224609375
51.75, 51.81719970703125, 509.14105224609375, 510.0588684082031, 504.88812255859375
52.0, 52.06779861450195, 219.94728088378906, 220.0223846435547, 218.01034545898438
52.25, 52.31719970703125, 447.5730285644531, 448.4918518066406, 443.8279724121094
52.5, 52.566200256347656, 722.5985717773438, 723.7748413085938, 716.6566162109375
52.75, 52.815799713134766, 495.13037109375, 496.1009826660156, 490.9975891113281
53.0, 53.065799713134766, 272.19140625, 272.9502868652344, 269.8468933105469
53.25, 53.32059860229492, 457.5544128417969, 458.6823425292969, 453.7239074707031
53.5, 53.57400131225586, 649.676513671875, 650.998779296875, 644.2783813476562
53.75, 53.81740188598633, 490.3321838378906, 491.38720703125, 486.2366027832031
54.0, 54.06700134277344, 331.4380798339844, 332.0179138183594, 328.63519287109375
54.25, 54.31639862060547, 462.57501220703125, 463.5453796386719, 458.70654296875
54.5, 54.56660079956055, 588.5506591796875, 589.8133544921875, 583.658935546875
54.75, 54.81660079956055, 483.8312072753906, 484.7289123535156, 479.79095458984375
55.0, 55.06639862060547, 374.83160400390625, 375.47662353515625, 371.6667175292969
55.25, 55.31639862060547, 467.9554748535156, 468.8784484863281, 464.0500183105469
55.5, 55.566001892089844, 553.6189575195312, 554.7264404296875, 549.0030517578125
55.75, 55.81660079956055, 478.27239990234375, 479.11956787109375, 474.2775573730469
56.0, 56.06760025024414, 410.7274169921875, 411.54473876953125, 407.1598205566406
56.25, 56.31760025024414, 910.4973754882812, 912.5444946289062, 904.7685546875
56.5, 56.569000244140625, 521.1192016601562, 522.273193359375, 516.8680419921875
56.75, 56.81660079956055, 159.24900817871094, 158.97650146484375, 156.77999877929688
57.0, 57.069000244140625, 437.3551025390625, 438.075927734375, 433.6146545410156
57.25, 57.31480026245117, 803.5831298828125, 806.5524291992188, 797.7810668945312
57.5, 57.56660079956055, 505.2879638671875, 506.35797119140625, 501.1356201171875
57.75, 57.82160186767578, 234.55902099609375, 234.32986450195312, 232.2379608154297
58.0, 58.06639862060547, 450.1639709472656, 450.95098876953125, 446.35504150390625
58.25, 58.32160186767578, 670.6539306640625, 673.447021484375, 665.6773071289062
58.5, 58.57320022583008, 490.1005554199219, 491.140625, 486.0837097167969
58.75, 58.82339859008789, 313.9913024902344, 312.9622497558594, 310.52618408203125
59.0, 59.07400131225586, 463.2576599121094, 463.88446044921875, 459.2942810058594
59.25, 59.32419967651367, 601.9374389648438, 585.3038940429688, 578.9601440429688
59.5, 59.574798583984375, 482.9353942871094, 483.7745056152344, 479.00360107421875
59.75, 59.815799713134766, 382.69573974609375, 380.5039978027344, 384.1282653808594
60.0, 60.06639862060547, 897.9107666015625, 886.8131103515625, 885.2523193359375
60.25, 60.31639862060547, 525.1420288085938, 527.2540893554688, 525.2991333007812
